CORE;CPU;DRAM;DURATION;UNCORE;EXIT_CODE;INPUT
1113705;1545468;221740;200760;0;0;2
2279657;2839348;330138;290735;488;0;4
3356314;4192067;480589;434073;305;0;6
4910449;6113265;700010;632983;488;0;8
6423446;7999796;902342;830230;428;0;10
7092816;8821328;1000730;917085;366;0;12
8433939;10494907;1184018;1087412;549;0;14
9451148;11757355;1327084;1220626;611;0;16
11186983;13912318;1569699;1445707;549;0;18
13197415;16409382;1859675;1707891;977;0;20
15243064;18950330;2120356;1960670;976;0;22
15245139;18967237;2138179;1975108;1160;0;24
16701739;20803230;2341730;2174230;915;0;26
18455153;22956667;2578668;2387442;1221;0;28
18964551;23587037;2645013;2450769;1221;0;30
20847664;25925959;2911736;2700109;1159;0;32
21322333;26532708;2987602;2770308;1343;0;34
24641111;30661970;3454153;3207443;1038;0;36
25632137;31878214;3556448;3300094;1404;0;38
26356194;32814918;3695425;3433002;1403;0;40
29693101;36934598;4142384;3847024;1770;0;42
28741992;35741974;4002676;3717527;1464;0;44
31866007;39630452;4448475;4130331;1893;0;46
33521337;41727127;4665088;4353861;1281;0;48
38354455;47765381;5367968;4997057;1709;0;50
34458897;42885816;4813831;4479978;1404;0;52
39195335;48753660;5444200;5067809;1953;0;54
36626310;45569952;5119250;4763449;1647;0;56
38325159;47670471;5352159;4974959;1647;0;58
40706133;50681389;5707505;5316761;1892;0;60
43590953;54486006;6163253;5761098;2014;0;62
46475345;57830479;6488997;6042595;2136;0;64
45761357;56954383;6397384;5954103;1953;0;66
117728642;146485221;16427143;15485558;1770;0;68
62445763;77663437;8719826;8125883;2503;0;70
49597163;61710352;6940778;6460489;1892;0;72
49254268;61264675;6890242;6415575;2197;0;74
50703423;63076316;7093305;6600164;2381;0;76
54396406;67684947;7615520;7093611;2441;0;78
70558291;87752949;9843175;9186892;2442;0;80
54837690;68213144;7686321;7170574;2502;0;82
73956659;92013070;10358311;9685762;2991;0;84
67373912;83803191;9427527;8784846;2747;0;86
65773575;81806493;9166297;8546231;2563;0;88
60648649;75449758;8468423;7891860;2503;0;90
65494949;81415990;9117652;8486331;2380;0;92
66733350;83046052;9349830;8712466;2380;0;94
70985108;88294696;9922033;9236374;2685;0;96
66173964;82332492;9267066;8621056;2625;0;98
64430621;80189370;9033546;8403357;2502;0;100
71313416;88845292;9998326;9338868;2747;0;102
73475337;91533213;10294713;9603913;2747;0;104
74663078;92924933;10459262;9774307;2136;0;106
72379026;90064467;10137914;9438905;2930;0;108
77896468;96944942;10903658;10163457;3418;0;110
76606066;95301086;10717318;9971523;3235;0;112
77074815;95934325;10785434;10053633;3051;0;114
82686922;102876263;11562471;10771777;2625;0;116
81214331;101045762;11352510;10590218;2747;0;118
86811911;107958098;12088470;11267323;3845;0;120
85819910;106775301;11982330;11185474;3052;0;122
82514803;102661419;11561555;10766611;3357;0;124
86945151;108239103;12182647;11397374;2380;0;126
91468272;113861037;12820218;11972379;3113;0;128
91215343;113542983;12772062;11923162;3235;0;130
91191906;113428115;12741178;11869004;3845;0;132
92394356;114963634;12938504;12065692;3601;0;134
98952444;123212881;13863734;13048347;1343;0;136
100847398;125476364;14112329;13159949;3907;0;138
96004942;119449585;13417873;12517779;4150;0;140
102924663;128307777;14492395;13522905;3540;0;142
98830130;123000051;13827358;12910040;3113;0;144
140711920;167145751;19118603;13424617;4028;0;146
135105612;161983655;17853287;13827319;4029;0;148
140032906;169587029;17898880;15407856;4760;0;150
157172083;186628612;19906566;15029767;2868;0;152
158298240;187714974;19716686;15029823;4700;0;154
112221942;139648691;15761739;14662431;4273;0;156
111670674;139001536;15681905;14623320;5004;0;158
112461931;140077278;15810811;14804438;2136;0;160
126819988;157979515;17894852;16696039;4456;0;162
125007676;155568755;17520463;16365573;5188;0;164
174182477;208602860;22055608;17839346;5432;0;166
132211148;164467535;18505384;17250946;5493;0;168
130390475;162270520;18308058;17077263;5676;0;170
138428539;172266100;19423107;18129557;4700;0;172
145013057;180440395;20345712;18977371;4578;0;174
321084933;399903884;45219489;42238188;9033;0;176
33188880;42335646;5125170;4754863;2258;0;178
151766091;188794805;21250129;19836005;5249;0;180
161045730;200224524;22444156;20965397;5798;0;182
156221707;194440604;21865422;20533470;2625;0;184
165202763;205612633;23119265;21663052;5920;0;186
114729016;142806825;16069051;14996940;4944;0;188
195072071;242828724;27370413;25671487;4639;0;190
193379938;240579218;27042045;25275157;6775;0;192
181422876;225690096;25348873;23719734;6897;0;194
139491891;173806135;19618358;18424227;1282;0;196
184195390;229157006;25726985;24056244;6226;0;198
111338155;138535473;15580404;14528717;4577;0;200
155500030;193591362;21797918;20438097;3968;0;202
208359635;259619148;29325730;27438223;7446;0;204
112064410;139419687;15693869;14637089;5371;0;206
138171277;172184008;19435864;18225059;3173;0;208
255330523;317650676;35763885;33426204;9887;0;210
121359309;151184306;17136797;15997820;4456;0;212
129159521;160878922;18165115;17079311;1221;0;214
247181985;307727545;34715548;32471974;8972;0;216
91601450;114000684;12861784;11981714;4150;0;218
135220601;168673640;19087476;17920381;2320;0;220
100416247;125012680;14119471;13155655;4517;0;222
154160494;192188167;21700323;20329531;5859;0;224
81200659;101085557;11390046;10614542;4150;0;226
158122765;196911910;22230106;20891649;2442;0;228
97416316;121309321;13716334;12791616;4578;0;230
94786623;118110110;13355496;12458814;4272;0;232
89931288;112809098;12935087;12139057;3601;0;234
81731480;101772261;11493867;10714625;3906;0;236
63420431;79093609;8971290;8376029;2014;0;238
289920766;360645073;40612811;37969655;10193;0;240
63923603;79605387;9023414;8378681;3174;0;242
127552164;158771444;17885513;16790127;2686;0;244
100389086;124996323;14108057;13164228;4273;0;246
303456438;377354563;42447340;39656812;10864;0;248
102800213;127927224;14431360;13447570;4090;0;250
120784725;150402813;17019915;15897222;4943;0;252
329870066;415680759;48284666;45453079;7324;137;254
116468390;146800771;17093340;15967257;5066;0;256
35306612;44015452;5031481;4636167;2136;0;258
571797120;740237180;84852566;81586845;8423;137;260
92166513;116884527;13847987;12933341;5066;0;262
102763714;128228553;14620934;13631093;4883;0;264
88722185;110516440;12514738;11645367;3662;0;266
47037294;58577303;6642988;6156530;2807;0;268
97430781;121050349;13542812;12654389;3113;0;270
42898755;53454880;6088547;5625524;2380;0;272
63360922;78887981;8943337;8299787;2991;0;274
97797601;121436518;13595730;12639198;4150;0;276
49726008;61914514;7022016;6490388;3052;0;278
80545570;100378466;11359040;10598563;3418;0;280
66755140;83193940;9406470;8757894;3052;0;282
73931146;92030220;10387608;9650919;4212;0;284
87161337;108592984;12332915;11474204;3906;0;286
83641571;104102700;11766328;10936320;4089;0;288
69127264;86037804;9725622;9017915;3357;0;290
36598905;45656133;5236071;4833421;2198;0;292
52187489;64995866;7388226;6843181;2197;0;294
57010596;71014528;8044169;7457699;3174;0;296
97468013;121702264;13880213;12950913;4639;0;298
94110355;117218023;13295926;12382544;4333;0;300
35698578;44496651;5084398;4682665;2503;0;302
42421523;52864062;6015365;5554572;2319;0;304
89522415;111499776;12641019;11784515;3235;0;306
79025005;98480583;11198457;10419143;3540;0;308
32696999;40766192;4678698;4312099;2136;0;310
332728518;420346825;49276730;46475012;10254;137;312
312711480;391170264;45011970;42134946;11169;0;314
339298814;429406128;50606560;48014898;4455;137;316
200083289;250817351;28826526;27034630;7874;0;318
279136004;347673548;39333274;36963242;6958;0;320
227936428;283717719;32084695;30042585;8484;0;322
332155766;420670249;49513667;46947198;6409;137;324
344340122;436611736;51379141;48559075;11840;137;326
351026506;447700941;53290635;50731309;1953;137;328
399471206;512811737;60832486;57960500;12268;137;330
252035244;315574448;36070952;34060965;2441;0;332
334665769;422557817;49437435;46635949;11414;137;334
318943947;399420059;45932194;43273871;2380;0;336
336854057;426033883;50164849;47205844;12940;137;338
335290950;428112735;51522146;49033409;3662;137;340
345072298;438187965;51761464;48758132;13550;137;342
340890119;430349118;49987482;47484812;2991;137;344
383270320;489266509;57313574;54396808;11596;137;346
341657023;437909707;52732470;50279706;3662;137;348
340184493;431573480;51078544;48107583;12513;137;350
333556703;426543647;51563649;48914743;1586;137;352
446655168;572531921;66420057;63315653;12269;137;354
328663954;422346575;51961293;49459335;3051;137;356
341344036;433356923;51244620;48427794;12757;137;358
331488654;420778830;49809687;47455361;3052;137;360
340765363;431265558;50621025;47694017;12146;137;362
324064356;418559170;52285450;49800169;2503;137;364
418333463;540904682;64081257;61000609;12451;137;366
92723456;117831547;14011256;13159098;3357;0;368
29508591;36818814;4229909;3884642;2136;0;370
67395030;84010832;9547156;8871449;3357;0;372
56834450;70841493;8091532;7486932;3052;0;374
40117756;50028803;5747544;5293141;2563;0;376
48984066;62557884;7748088;7208316;2869;0;378
44154306;55043987;6276657;5795371;2625;0;380
41257890;51462514;5903549;5429504;2991;0;382
38976646;48571348;5532579;5107584;2746;0;384
50901115;63457418;7246991;6732830;1160;0;386
53141283;68075692;8610757;7923059;3235;0;388
31973490;40868608;5106371;4713400;2808;0;390
37826747;47146608;5365160;4951073;2381;0;392
47155824;58739351;6690108;6175243;2502;0;394
42744336;53287278;6100693;5631858;2503;0;396
43375988;54054427;6172592;5689368;2563;0;398
57386572;71541626;8148966;7572835;3174;0;400
80953651;100852769;11446626;10679594;3418;0;402
38258264;47709229;5474229;5034203;2075;0;404
64563129;80379372;9098976;8450064;3113;0;406
41622757;51846303;5900559;5447168;2624;0;408
39005576;48614805;5555589;5117969;2380;0;410
95362488;119189331;13613856;12734301;4578;0;412
78144880;97308345;11014010;10233192;3906;0;414
99804188;124417894;14069849;13219471;2747;0;416
34662570;43212047;4949694;4537749;2137;0;418
89318985;111370687;12726286;11859030;4089;0;420
70626772;88010334;9998205;9279604;3784;0;422
65948134;82179600;9355079;8705798;4029;0;424
79186504;99367788;11466768;10787925;3845;0;426
28945482;36142059;4155263;3812569;2075;0;428
74137383;92478401;10523838;9853095;1892;0;430
65858535;82200900;9411475;8761791;3357;0;432
80322060;100041858;11359895;10569315;3662;0;434
80127603;99767384;11277498;10515562;3784;0;436
76225330;94901308;10739230;9990311;3907;0;438
64607073;80522132;9164100;8519896;3296;0;440
85491297;106472139;12021393;11270663;1953;0;442
76524218;95343628;10841709;10094021;3357;0;444
38831382;48426511;5568040;5117196;2625;0;446
21794927;27222159;3172599;2879257;1465;0;448
48745359;60755826;6939558;6423432;2930;0;450
78508649;98023797;11242037;10466662;3601;0;452
69171210;86261864;9856420;9148333;3235;0;454
74719291;93106268;10579868;9866003;3296;0;456
73661494;91809824;10464878;9731336;3723;0;458
78975811;98406913;11189729;10415835;3784;0;460
71752929;89413345;10186864;9457972;4211;0;462
80357582;100119312;11379975;10587284;4334;0;464
75498464;94047672;10704501;9948923;3662;0;466
75292653;93823735;10630710;9956017;1282;0;468
44994941;56099465;6403793;5908623;2625;0;470
71828185;89520950;10195042;9483108;3967;0;472
81530858;101793440;11632355;10855726;4028;0;474
26123895;32656349;3805654;3467128;2319;0;476
73780756;91915292;10456211;9714783;3113;0;478
28385425;35455780;4109364;3750472;2502;0;480
37190945;46389652;5333422;4909618;2442;0;482
74428093;92751837;10519504;9818489;1892;0;484
69625066;86793967;9926915;9214531;3357;0;486
76749743;95565796;10851413;10081395;3663;0;488
80216164;100129016;11475007;10676634;4394;0;490
31455791;39282676;4528248;4158570;2686;0;492
50320184;62793541;7218975;6671541;2990;0;494
80457985;100263476;11401399;10591926;3602;0;496
76904222;95893981;10949435;10169095;4394;0;498
32825600;41056658;4761401;4374059;2381;0;500
29277635;36533659;4218739;3844526;2014;0;502
42210097;52680529;6071884;5590327;3235;0;504
32148844;40082600;4612293;4215945;2136;0;506
44318185;55495036;6426253;5943666;2686;0;508
28657825;35784333;4161732;3791206;2441;0;510
72972958;90957775;10385594;9642405;3906;0;512
28136341;35066621;4023122;3671272;1892;0;514
27778982;34669040;4005788;3654320;2259;0;516
56591652;70595950;8078958;7479353;2930;0;518
75770192;94354495;10730807;9958590;4394;0;520
29253221;36529997;4236867;3872783;1953;0;522
32181315;40162800;4651966;4249179;2563;0;524
31899332;39844258;4618580;4220275;2869;0;526
32882789;41065935;4749804;4356326;2258;0;528
35527558;44328988;5119677;4691883;2503;0;530
21460639;26860893;3153922;2852081;2136;0;532
48248778;60168547;6884077;6368933;2441;0;534
20475595;25598568;2990166;2702577;1770;0;536
23101687;28882983;3381278;3058989;2258;0;538
48213134;60360502;6948713;6433492;2747;0;540
25495357;31825358;3696402;3345484;2869;0;542
41337418;51546926;5916123;5432241;2502;0;544
56323647;70276797;8070230;7463675;3113;0;546
81857151;102046858;11639680;10838791;4212;0;548
73205074;91144114;10328343;9583943;4150;0;550
71141603;88740251;10138097;9455329;1343;0;552
40220234;50213921;5801255;5333365;2258;0;554
76734545;95637572;10914584;10124923;3968;0;556
32127481;40112447;4642933;4243930;2258;0;558
60450590;75343680;8616311;7960464;3662;0;560
56749611;70848452;8136088;7527581;3235;0;562
28786120;36001373;4179982;3808352;1953;0;564
28332020;35385896;4111989;3742459;2075;0;566
26134882;32689614;3811636;3463535;2319;0;568
24886960;31084332;3633414;3289000;2137;0;570
42744215;53448167;6196273;5739341;1159;0;572
47719055;59522125;6832441;6308248;3052;0;574
49934869;62251427;7135724;6572290;2686;0;576
44816597;55938882;6465376;5949528;3113;0;578
30522199;38143518;4446766;4050055;2380;0;580
40956988;51097037;5897629;5412694;2442;0;582
23133241;28911608;3391410;3058123;1831;0;584
42179884;52603869;6054123;5554873;2441;0;586
27457388;34304600;3999745;3635816;2197;0;588
34286534;42796339;4961901;4529405;2136;0;590
33288855;41561295;4810840;4396579;2320;0;592
40260822;50227410;5772385;5325072;1038;0;594
27078483;33848607;3943776;3591007;2014;0;596
61290066;76415392;8735756;8087818;3357;0;598
29452806;36786466;4279775;3893860;3296;0;600
27693959;34593662;4041738;3663249;2075;0;602
34916598;43585093;5027392;4609766;2259;0;604
46138554;57516576;6595503;6073425;2502;0;606
43042736;53700668;6199691;5688502;2808;0;608
23265810;29082873;3411978;3077381;1953;0;610
44817451;55873698;6416670;5897175;3052;0;612
40158588;50157831;5822495;5330800;2625;0;614
26714959;33399695;3886952;3551673;1160;0;616
48378355;60344328;6935163;6381164;2991;0;618
38924155;48592588;5616868;5149163;2868;0;620
23212892;29047838;3416129;3080774;1954;0;622
24058288;30076156;3526846;3190468;1831;0;624
35530183;44338632;5129687;4681275;2991;0;626
39507711;49312496;5694810;5227124;2624;0;628
19283581;24127807;2855827;2551494;2014;0;630
31832255;39773946;4618153;4213352;2259;0;632
31700847;39599325;4600086;4194884;2319;0;634
32966591;41174150;4791431;4366855;2564;0;636
28596119;35847869;4217335;3830906;1831;0;638
44790901;55928079;6452925;5955070;2319;0;640
40740008;50836296;5865708;5380091;2320;0;642
30488935;38084924;4424915;4028963;2136;0;644
33834508;42260939;4923388;4475060;2442;0;646
306539132;382542966;43541698;40880554;10742;0;648
364115035;463576084;54484602;51566846;12818;137;650
237589723;298986967;34879672;32876409;4273;0;652
439853489;563945516;65503677;62552556;11475;137;654
403863407;518875503;61323817;58532374;2564;137;656
239513547;300903344;34765719;32559481;10009;0;658
188517645;234738535;26464471;24809340;6530;0;660
210468944;262158204;29721176;27804183;8606;0;662
337008659;423673476;48840879;46155823;7263;137;664
330930427;423019547;51010795;48098343;13916;137;666
327032732;414905432;49340511;46718738;3479;137;668
329072339;417009797;49323909;46536951;12329;137;670
332783145;422270281;50174799;47522205;2747;137;672
712809089;929229554;106559054;102882346;11536;137;674
331406439;420127342;49538814;46982045;2990;137;676
324773522;418330044;52126698;49331332;12390;137;678
326699481;414076454;48822751;46304573;2319;137;680
337591604;429211182;50954093;48036287;12391;137;682
326896258;414017800;48760434;46667758;2137;137;684
345673797;440791352;52723803;49784887;12878;137;686
334093810;425148814;50536797;48106472;2624;137;688
427473820;548473083;64156452;61109997;11658;137;690
490621608;635900045;74859489;72003434;3479;137;692
336011102;426619391;50448418;47623996;11841;137;694
326615985;413431742;48648619;46176736;2747;137;696
345811188;444170311;53841598;50931356;13244;137;698
342616066;437877297;52575976;50035473;2319;137;700
390907447;500939514;59210054;56218606;12635;137;702
334673215;425428294;50416619;47842723;4211;137;704
338039356;431791009;51507498;48717953;11902;137;706
201110630;253221886;29567368;27833355;2563;0;708
114167249;142290530;16195698;15081012;5676;0;710
335819208;425296640;49977655;47182364;11047;137;712
170628591;214634887;24950559;23341748;6958;0;714
327700943;412429425;47989623;45268594;8057;137;716
344157750;442259549;53734176;50875208;13428;137;718
326754046;417492401;50687493;48098542;2381;137;720
344642306;459772382;61747218;58874103;13061;137;722
581550757;767558704;92787238;89169912;14160;137;724
329790050;418524380;49321285;46811642;3113;137;726
334440428;425153453;50796989;47870975;12634;137;728
365250347;471389235;57283056;54616015;2869;137;730
347200222;444624716;53695663;50688818;13367;137;732
339272508;438641760;54221785;51604423;2076;137;734
492879842;655873382;82644259;79202878;13915;137;736
322942960;410330432;48926511;46591628;3112;137;738
352791577;455000300;55718364;52684851;14527;137;740
324966881;413414591;49369503;46914508;3906;137;742
331098091;424534741;51855031;49037813;12268;137;744
323489833;412445905;49704157;47067174;3785;137;746
330607247;429350891;54178206;51207409;12817;137;748
327564896;416214388;49565913;46998887;2868;137;750
407812005;537645230;68057992;64783020;13306;137;752
342462869;435923444;52446155;49615774;3357;137;754
346262480;449913338;56522499;53437378;12634;137;756
184201677;232419632;27158988;25620317;3479;0;758
310217956;405715697;52934862;50063040;13611;137;760
324654015;416559542;50784416;48169226;1465;137;762
254623860;322547087;38567223;36068850;10559;0;764
308148381;397793110;50306390;47657587;5493;137;766
259507880;329781810;39806783;37238665;10986;0;768
308633914;401115489;51541799;48946909;4639;137;770
333137453;431208735;53968429;51103248;14160;137;772
328170119;423179031;52616137;50075800;3296;137;774
331832097;427494450;53318589;50442844;13061;137;776
320076512;409756946;50284905;47646474;1159;137;778
405614562;533536171;67420238;64203115;13062;137;780
79591654;101150803;12106170;11305523;2319;0;782
366433266;477073547;59811493;56818238;13122;137;784
316791425;408896048;51319815;48917859;3418;137;786
333839111;437523904;56416725;53401591;12451;137;788
316077133;406433164;50429803;47898843;2319;137;790
337031120;436044294;54495222;51537026;13672;137;792
314319569;404490603;50341607;47762000;3113;137;794
308468571;403199286;52665881;49722177;12939;137;796
320903353;412919841;51160818;48703846;1770;137;798
392764741;518975723;66598767;63361643;11902;137;800
338060841;441529631;56208413;53732624;3174;137;802
322951505;420775840;53972640;51008819;13305;137;804
352452162;460600322;58359409;55777209;1587;137;806
321869415;419774316;53941757;50853091;13672;137;808
310269225;414060952;56581154;54074070;3845;137;810
332794924;429315368;53351304;50429672;12146;137;812
313349662;402338691;49814875;47257116;2442;137;814
423276321;551713248;68059702;64878275;13977;137;816
308140141;399898574;51087699;48604437;2320;137;818
312596612;409435536;53532822;50703039;12512;137;820
318599587;412034101;51817250;49237186;2198;137;822
314618702;412164411;54099044;51081877;13000;137;824
322774748;413942910;50965324;48555000;1648;137;826
344100010;453499693;59346528;56281488;14892;137;828
385006705;514106655;67867135;64687945;14526;137;830
325828268;425011729;54341108;51729845;1892;137;832
308385990;405271484;53412583;50497794;14526;137;834
307501166;401546945;51917286;49439995;1525;137;836
315714341;412222517;53368210;50532035;14466;137;838
306618844;397791157;50912529;48263345;1709;137;840
326338398;431323175;57133460;54117531;13428;137;842
313281424;407208735;52117115;49492805;1587;137;844
315032702;412127302;53709762;50832231;13550;137;846
305311902;397456197;51312490;48881629;1282;137;848
336334832;443640527;58261631;55181700;14282;137;850
317272381;409613514;51534475;49048198;1098;137;852
303410783;399638382;53332566;50401533;13367;137;854
303791825;399997694;53113389;50542172;1220;137;856
174957866;223660438;27534537;25756961;7996;0;858
302641254;400040602;53951888;51247443;7934;137;860
317697124;418862819;55649943;52771722;12696;137;862
311740902;407772027;53050096;50467402;1892;137;864
404848695;540887714;71094606;67989933;13366;137;866
169418878;217747062;27298453;25578127;8484;0;868
3866079;5019945;759641;553439;1343;0;870
3916311;5065966;744383;547492;671;0;872
3876638;5039294;754027;550323;549;0;874
3837636;4973315;744261;548735;672;0;876
3959463;5125170;757322;554171;733;0;878
3875478;5032885;749266;550193;916;0;880
3838491;4992113;747129;549459;305;0;882
3954397;5111193;749022;550415;611;0;884
4038198;5243273;780698;574295;976;0;886
3856863;5020434;750486;553315;245;0;888
3962636;5137194;757323;553874;488;0;890
3911428;5071887;753416;552903;488;0;892
3883779;5051134;764647;558082;671;0;894
3968801;5138292;755247;554698;733;0;896
3916860;5085802;759397;556885;671;0;898
3873648;5049731;757750;557569;732;0;900
3971181;5144213;763609;556543;794;0;902
3908987;5079394;756285;553840;854;0;904
3902517;5087572;765745;557970;488;0;906
4041066;5235338;768614;564232;793;0;908
3938588;5110766;766965;558523;610;0;910
3919607;5082141;763304;558337;672;0;912
3999013;5168993;762327;559167;793;0;914
3927602;5099780;761595;557742;427;0;916
3940175;5118700;774107;564757;671;0;918
3970876;5168077;763976;557733;245;0;920
3969350;5146898;765501;559296;427;0;922
3920706;5109667;767942;561095;549;0;924
4054005;5258959;774412;565879;549;0;926
3956472;5151476;771910;564957;1038;0;928
4016286;5227465;789122;577587;1098;0;930
4044728;5237658;774840;564565;1403;0;932
3997792;5196703;784605;564863;1159;0;934
3997365;5178576;779844;567429;1342;0;936
4069814;5286180;784238;569633;1342;0;938
3977284;5174853;781859;567765;1220;0;940
4002614;5197618;789305;570977;1159;0;942
4080373;5295824;784299;570827;976;0;944
4018056;5226671;785459;568465;1099;0;946
3983267;5183520;785032;568607;855;0;948
4064259;5272753;789793;567468;610;0;950
4013722;5211962;784727;569386;976;0;952
3948782;5139269;780943;566602;549;0;954
4046010;5256456;777342;568593;305;0;956
4024221;5218981;793028;571132;855;0;958
4087698;5339098;806944;589205;1160;0;960
4122304;5349901;800047;578014;1709;0;962
4052114;5271349;795103;574904;1160;0;964
4027883;5243395;798521;573908;1282;0;966
4127919;5347826;795957;577306;855;0;968
4062978;5275194;800901;575490;977;0;970
4043874;5254870;795164;575689;976;0;972
4127370;5359056;810056;579956;976;0;974
4061574;5269945;797850;576610;977;0;976
4100270;5330309;799802;576347;1038;0;978
4068655;5289415;799742;576234;672;0;980
4082875;5314439;809630;583635;1037;0;982
4126638;5338976;796446;574081;1037;0;984
4091237;5327745;806638;579864;1098;0;986
4105458;5329027;803465;579407;1037;0;988
4129201;5372361;817686;581673;1526;0;990
4068410;5290087;803465;579255;1281;0;992
4162526;5393663;806151;580736;1220;0;994
4093678;5325731;807554;582643;793;0;996
4172169;5445360;833922;602748;1160;0;998
4177174;5421128;811338;585221;1038;0;1000
4110890;5348436;809996;583454;1282;0;1002
4070302;5298448;809507;582315;1037;0;1004
4220143;5468858;823301;590999;1220;0;1006
4089345;5316820;806882;582938;1282;0;1008
4053579;5290270;811644;584746;1221;0;1010
4184133;5431688;812253;585946;1282;0;1012
4101613;5352464;820005;584800;1099;0;1014
4099294;5333543;813597;585718;915;0;1016
4167836;5416551;817258;587412;1098;0;1018
4114064;5360216;816343;587084;793;0;1020
4214528;5476793;835753;591324;610;0;1022
4144948;5395250;817625;588033;1343;0;1024
