CORE;CPU;DRAM;DURATION;UNCORE;EXIT_CODE;INPUT
1128720;1659786;261718;224689;854;0;2
2217279;2785027;329345;290316;427;0;4
3319327;4155812;482604;434668;245;0;6
4963428;6214584;721983;653759;793;0;8
6376937;7956523;914549;829235;427;0;10
7182050;8966164;1041563;942642;733;0;12
8372843;10435582;1198606;1094520;671;0;14
9466956;11802643;1352962;1232720;733;0;16
11235994;13999110;1603939;1462951;793;0;18
13147366;16382709;1872370;1719052;977;0;20
15419150;19208630;2180719;2010460;915;0;22
15211753;18957044;2162348;1986718;977;0;24
16464557;20508553;2331476;2148599;976;0;26
18854444;23513063;2682122;2469820;1404;0;28
19015759;23686219;2689080;2473069;1282;0;30
20782966;25894342;2949212;2714894;1404;0;32
21396552;26609368;2990593;2758319;1465;0;34
24845456;30974957;3521720;3254801;1892;0;36
25691646;31969828;3601004;3326136;1404;0;38
26494317;32990394;3738882;3443245;2014;0;40
29781540;37070706;4195424;3879397;1892;0;42
28965929;36099700;4092152;3784988;1343;0;44
31769206;39559286;4483143;4138245;1648;0;46
32940223;41026628;4636645;4300225;1403;0;48
37894800;47178101;5335009;4932954;2258;0;50
34342686;42775464;4842883;4482738;1587;0;52
39562643;49347774;5605088;5193683;2014;0;54
37062161;46157292;5219469;4824930;1831;0;56
38390160;47803528;5414537;5005789;2014;0;58
40264484;50130060;5662766;5240752;1892;0;60
42436781;52840441;5986435;5539967;2320;0;62
46713565;58139866;6571089;6074841;2685;0;64
46427799;57827488;6561385;6077970;2075;0;66
118569826;147620593;16603839;15642911;1709;0;68
62494896;77778121;8780312;8163571;3052;0;70
49309078;61383571;6948651;6443191;2380;0;72
49464778;61599452;6982892;6465183;2503;0;74
51273856;63881245;7246442;6720997;2441;0;76
53935226;67164684;7616680;7057142;1953;0;78
72435300;90316236;10224400;9527752;3724;0;80
56182412;70035526;7998270;7460013;2319;0;82
74274774;92497749;10482090;9768591;2930;0;84
68049325;84727749;9589819;8912999;3357;0;86
65752090;81857152;9244788;8590108;2808;0;88
62286400;77718002;8844154;8222917;2929;0;90
65234757;81213904;9173743;8506358;3052;0;92
67168224;83636993;9459936;8797473;2197;0;94
70976686;88381975;9997533;9277159;2990;0;96
66670545;83054841;9411475;8731866;3173;0;98
64572832;80379433;9099037;8430184;2686;0;100
70842348;88233661;9973424;9262960;3479;0;102
73517756;91533946;10312962;9594065;3296;0;104
75050711;93455999;10547215;9839106;2747;0;106
73624018;91785898;10431187;9707001;2930;0;108
80680519;100497057;11389314;10608837;3173;0;110
77889449;96989864;10973482;10216097;3417;0;112
77171006;96067747;10816379;10067465;2990;0;114
83264252;103650552;11709199;10886839;3296;0;116
81415563;101361679;11460542;10645681;3724;0;118
87036459;108372770;12236907;11388347;3723;0;120
86925254;108213651;12199981;11351322;3296;0;122
82328464;102473919;11579621;10752561;3418;0;124
86127099;107258087;12118927;11311649;2441;0;126
90260999;112344805;12673857;11789845;4089;0;128
92116036;114790844;12993314;12085953;4150;0;130
91002147;113286209;12784574;11901785;3968;0;132
92924262;115603891;12991544;12084274;3662;0;134
100001514;124617784;14064234;13214302;1465;0;136
101284286;126028669;14179468;13196698;4028;0;138
95764891;119207276;13459316;12510737;3845;0;140
100964341;125657027;14168420;13184188;3906;0;142
99610463;124130603;14037989;13091173;3967;0;144
100579821;125200302;14117883;13127964;3906;0;146
102557965;127679238;14426599;13415872;4578;0;148
108363065;134899679;15201255;14167807;4394;0;150
110110985;137266739;15512350;14533512;3418;0;152
111036642;138184460;15554282;14496932;4639;0;154
114755444;142799561;16073201;14995362;5188;0;156
114886546;143352111;16251179;15180429;4395;0;158
112467669;139991218;15753988;14755480;2197;0;160
126784831;157792138;17777054;16587843;4944;0;162
126245221;157135401;17713028;16537120;5738;0;164
133963524;166686402;18773329;17517617;4577;0;166
133473230;166025515;18620008;17404346;4700;0;168
130912323;162987132;18407485;17162631;5676;0;170
139271921;173392988;19590892;18279917;4334;0;172
146405448;182052757;20388558;19056512;5310;0;174
317433513;394840664;44540535;41639871;8789;0;176
33418127;41681778;4764453;4387310;1831;0;178
152111244;189387332;21390448;19971943;5310;0;180
161273696;200734350;22674075;21141429;5981;0;182
156958765;195389820;22016911;20665193;2380;0;184
170418814;212672063;24194885;22667771;6042;0;186
114681469;142741822;16108418;14984600;4639;0;188
196503709;244615158;27590505;25854333;4517;0;190
195597949;243546617;27528372;25719618;7080;0;192
185711927;231317584;26096125;24367193;7019;0;194
138563305;172586106;19507335;18323989;732;0;196
183556903;228383631;25722468;24021944;6958;0;198
110459495;137522781;15575582;14455027;3967;0;200
157087367;195531665;22021550;20623904;3845;0;202
207611712;258220958;28962633;27060936;7263;0;204
113246780;141074712;15978047;14851880;3967;0;206
136832231;170312370;19189282;17944688;2869;0;208
255597063;317974284;35761566;33411600;7752;0;210
120121153;149461165;16837542;15674652;3967;0;212
129669712;161465834;18198501;17068775;1343;0;214
252276759;314134389;35361603;33082920;9094;0;216
94747987;118285464;13428188;12509708;3540;0;218
133264551;165978274;18743543;17558982;1953;0;220
100231127;124821885;14152185;13142474;4212;0;222
150914470;187837776;21199287;19760321;5432;0;224
80547584;100293445;11354341;10539772;3174;0;226
159746112;198949564;22466251;21064985;2502;0;228
103382914;129292638;14756615;13803761;4883;0;230
94519533;117781192;13367214;12435733;3845;0;232
81445775;101451767;11519685;10693217;3418;0;234
82144260;102350507;11637177;10791716;3418;0;236
62575401;77950850;8831947;8210514;1404;0;238
289509757;360038202;40491351;37800872;10071;0;240
64965349;80940833;9180945;8504732;3296;0;242
127263651;158488547;17909805;16775389;2014;0;244
100663439;125433578;14260034;13253788;3906;0;246
303892166;377954477;42486097;39670520;9095;0;248
103441386;128757544;14567163;13530275;4577;0;250
121861688;151643838;17149004;15942594;4760;0;252
333955322;422506608;49434139;46681599;5738;137;254
116604254;149573836;18177688;17034148;5188;0;256
35444062;44170786;5043749;4641984;1770;0;258
338055715;425742929;49116696;46414814;7995;137;260
92995855;117898196;13941737;12998719;2930;0;262
101352219;126158002;14261377;13251816;4395;0;264
89045915;110861350;12528654;11658960;3723;0;266
47730286;59531952;6796919;6267393;2380;0;268
95306275;118700441;13480679;12546045;2564;0;270
42991223;53560288;6092636;5625300;2075;0;272
64924822;80687598;9048744;8394253;3052;0;274
97770624;121850701;13791774;12845877;3845;0;276
50614128;63102378;7172467;6648521;2808;0;278
80335671;100095569;11350496;10559239;3845;0;280
65931045;82147373;9321631;8643183;2686;0;282
74835380;93306401;10575169;9822952;3784;0;284
87561788;109032985;12351897;11467279;3418;0;286
85355799;106371188;12092925;11235955;3296;0;288
68750312;85624903;9716589;9015680;2869;0;290
37933619;47088319;5272753;4848391;2136;0;292
52948716;66018690;7523968;6983317;2015;0;294
56673988;70593508;8024027;7423186;2807;0;296
96564511;120172605;13578395;12604346;3785;0;298
94214541;117211248;13210721;12278408;3601;0;300
35842010;44693977;5108569;4695140;1953;0;302
42341506;52766284;6021835;5544996;2319;0;304
90587293;112851212;12768766;11915606;2808;0;306
80246743;99915577;11292513;10473919;3418;0;308
33111671;41286515;4736865;4362383;1648;0;310
386127368;491031702;56825477;54126231;8850;137;312
316061996;396288354;45383978;42547477;11231;0;314
338151295;426826422;49482478;46957829;3479;137;316
199068338;250230804;28910570;27149865;6042;0;318
280688490;349362814;39404380;37010035;7324;0;320
235747931;293394207;33064308;31046660;8118;0;322
347296657;438267127;50624809;48059483;5798;137;324
460167829;594353032;69837162;66824849;11353;137;326
340186569;428667482;49420162;46977804;2380;137;328
341156719;435645492;52072316;49468455;11658;137;330
253418297;318403543;36843900;34570787;2381;0;332
352054884;445402363;51737050;48969416;12024;137;334
328124587;412438885;47641174;45095552;1953;0;336
341501994;433407764;51444814;48621765;11108;137;338
340199507;430846004;50432428;47720065;1525;137;340
352069167;446717057;52327746;49492910;11597;137;342
336697930;427894534;50553825;48079843;3723;137;344
367268347;469655475;55630412;52678402;10498;137;346
339983383;430810969;50591789;48117974;2319;137;348
368270846;470195147;55599162;52814003;10071;137;350
337588674;427471440;49975702;47420076;2685;137;352
338063221;428039737;50148309;47334930;10254;137;354
338263050;431443231;51332266;48927079;1892;137;356
341773539;432403679;50468499;47641594;9887;137;358
337391653;426970282;49763605;47334243;1892;137;360
340257430;434690477;52016468;49687474;10803;137;362
349003562;442544277;51438773;48971805;3235;137;364
339872604;431603021;50850578;47845434;10071;137;366
94514162;120582516;14488366;13590469;2625;0;368
29098497;36343840;4216786;3855374;2075;0;370
67357005;83921355;9536169;8834730;3479;0;372
57909581;72066649;8153177;7553295;2564;0;374
40578509;50567925;5775497;5314627;2502;0;376
52943590;65956374;7486187;6926331;2625;0;378
46342899;57934788;6660567;6168454;2075;0;380
42403822;52847888;6016464;5556828;1770;0;382
42382826;52554614;5857895;5390969;2381;0;384
51344717;64016132;7280193;6779424;793;0;386
55877970;69572149;7894756;7308048;3235;0;388
33893590;42273573;4851245;4453878;2075;0;390
37848658;47189088;5403001;4965457;1892;0;392
48299681;60070524;6785749;6264297;2075;0;394
43174389;53812607;6142990;5665420;2258;0;396
43569346;54316084;6210433;5717676;2319;0;398
57348608;71538941;8189493;7580607;2564;0;400
81871311;102013410;11573456;10787921;3051;0;402
38673668;48213500;5509996;5074253;2136;0;404
65125322;81125525;9231360;8542484;3113;0;406
42273818;52744310;6058395;5582830;2197;0;408
39983846;49964776;5744675;5301679;2319;0;410
92665351;115470957;13115444;12207738;3540;0;412
80408913;100346362;11408601;10617986;3723;0;414
99364430;123780994;13999110;13118274;1587;0;416
34465549;42991894;4937487;4535493;1709;0;418
90755444;113068497;12834317;11964541;3784;0;420
71635132;89270768;10145360;9423483;3174;0;422
66850842;83270660;9450842;8780197;2747;0;424
73070126;91022411;10282749;9579718;3051;0;426
28800769;35958038;4154775;3788948;1770;0;428
75102652;93711796;10675143;9976190;1465;0;430
66848950;83348603;9489355;8818602;2807;0;432
80707252;100537157;11432222;10615475;4029;0;434
81372899;101475692;11597504;10784951;3784;0;436
75665272;94266482;10727023;9951416;3174;0;438
64673235;80578285;9175025;8501959;2869;0;440
85458644;106522798;12077850;11303844;1464;0;442
77240403;96240049;10945590;10171357;3418;0;444
39094138;48869199;5660752;5209612;2136;0;446
21865240;27326957;3191581;2888779;1892;0;448
47468079;59164704;6745893;6216979;2136;0;450
77434067;96439085;10930819;10162437;2990;0;452
69809514;86955527;9863988;9145649;2869;0;454
74677238;93049872;10569492;9833927;2258;0;456
74063775;92275521;10495335;9735294;2868;0;458
79115520;98542045;11185701;10392744;4029;0;460
72264525;90068922;10244969;9520663;3479;0;462
81724706;101931685;11597077;10788994;3479;0;464
75980518;94663515;10768283;9994450;3174;0;466
75557546;94143924;10699374;9941804;2929;0;468
45376776;56570778;6452437;5936834;1953;0;470
72172605;89959975;10247288;9514747;3235;0;472
79996195;99714955;11389497;10566645;3601;0;474
26356866;32909095;3819570;3472074;1709;0;476
74727958;93069037;10567112;9798775;3784;0;478
28513965;35660980;4138845;3796340;733;0;480
37493495;46745425;5355577;4914495;2136;0;482
75789661;94441653;10719821;9952513;3662;0;484
70340823;87678059;9989842;9262261;3235;0;486
76862962;95757323;10894015;10115010;3723;0;488
79750955;99439015;11351717;10547506;3173;0;490
31106854;38827293;4484974;4098737;1893;0;492
50080560;62525902;7177594;6661398;1159;0;494
80832801;100715013;11416841;10609932;3174;0;496
76771959;95553589;10806247;10035213;3540;0;498
32264566;40249836;4641407;4240477;1892;0;500
28811083;35957793;4168141;3795998;1831;0;502
42778577;53389512;6130599;5646612;2625;0;504
31937113;39894124;4634631;4228345;2747;0;506
42717969;53303514;6119980;5635234;2502;0;508
28913256;36097930;4181508;3811489;1343;0;510
74054254;92275216;10460239;9765496;1404;0;512
28053944;35064791;4077321;3708414;1770;0;514
28017262;34968234;4039907;3675201;1770;0;516
56523354;70491885;8064127;7456200;2503;0;518
76318896;95115174;10831882;10055725;3052;0;520
29809311;37237942;4322560;3941369;1953;0;522
32125101;40099385;4633106;4232867;1953;0;524
31747905;39639974;4582203;4182739;2258;0;526
33187965;41418656;4793140;4372679;2380;0;528
35712006;44565315;5139452;4699503;2503;0;530
21610479;27015739;3168937;2856728;1831;0;532
48982663;61170803;7030256;6512515;976;0;534
20876594;26118281;3059196;2755558;1282;0;536
23346192;29153124;3401847;3071168;1770;0;538
46262210;57723668;6624190;6095439;2503;0;540
25610408;32010782;3726675;3375994;1526;0;542
41646194;51949452;5960983;5470160;2136;0;544
54921674;68391731;7769206;7169127;2930;0;546
81313879;101291184;11498933;10682977;3113;0;548
73509821;91540171;10374058;9621903;3601;0;550
71819213;89533035;10178624;9490577;1587;0;552
40838213;50966972;5863632;5389756;2014;0;554
77132738;96064574;10891024;10111546;2930;0;556
32541421;40711078;4744861;4335075;2503;0;558
60865322;75793019;8611306;7962412;2563;0;560
56504311;70440676;8039042;7427872;2747;0;562
29266954;36611234;4265186;3882301;2258;0;564
29178453;36508818;4248464;3870433;1770;0;566
26284356;32856301;3839651;3476637;1832;0;568
24971982;31250408;3676504;3323479;2258;0;570
43088330;53762070;6169174;5701922;671;0;572
48412351;60395170;6918318;6377280;2380;0;574
50031122;62407860;7165692;6599381;2380;0;576
44330575;55304912;6359847;5842982;2136;0;578
30849958;38508569;4467946;4067588;2075;0;580
41221758;51432302;5930649;5435122;2136;0;582
23458802;29332689;3437125;3098259;1709;0;584
42511488;53023607;6093307;5590812;1892;0;586
27545462;34413242;4008473;3637995;2014;0;588
34905977;43558543;5028063;4596162;1770;0;590
34493747;43103832;5010424;4585240;2625;0;592
40605853;50666130;5805283;5359162;793;0;594
27651724;34636081;4066518;3693835;1648;0;596
61440333;76591540;8759072;8089332;2686;0;598
29664414;37084500;4324025;3932091;1953;0;600
27919912;34880099;4071523;3694280;1831;0;602
35440034;44216256;5104357;4661494;2014;0;604
46525332;58014195;6658979;6121056;2564;0;606
43946360;54871137;6319686;5812193;2075;0;608
23365663;29221788;3431265;3091444;1587;0;610
44884040;56019815;6463484;5937672;2197;0;612
40073628;50029535;5797592;5297735;2136;0;614
26995537;33738500;3936758;3566721;1892;0;616
48658567;60686185;6966535;6410397;2258;0;618
39570272;49423946;5722642;5240999;2564;0;620
23356020;29231554;3449332;3099665;1770;0;622
24153807;30213057;3544486;3193036;1831;0;624
35625641;44470040;5140063;4690055;2503;0;626
40023274;49977656;5772141;5293801;1709;0;628
19627636;24567076;2903069;2587404;1953;0;630
32011026;40018818;4660999;4245241;1465;0;632
31713847;39616781;4613331;4193641;1709;0;634
32988319;41235001;4809253;4373965;1892;0;636
28062550;35100679;4119984;3721556;2075;0;638
45707891;57006629;6546980;6017912;2442;0;640
41168291;51379141;5923264;5427706;2258;0;642
30802900;38521630;4505664;4093796;2197;0;644
33980748;42456800;4941637;4498308;1586;0;646
306215830;381652160;43212719;40641426;8422;0;648
362502917;460563213;53706161;50963050;11841;137;650
241428154;302617450;34724337;32667738;2685;0;652
343045203;436225507;51829945;48930840;11413;137;654
341135845;430709164;49770319;47211017;2808;137;656
239714169;299419949;34068028;31791823;7568;0;658
186216808;231883256;26255181;24502752;6165;0;660
210371349;262061097;29732712;27764997;7996;0;662
342292764;431993279;49955011;47303560;6347;137;664
337325186;429990721;51232413;48461596;11841;137;666
329735972;418155180;49108394;46612273;1893;137;668
339609604;430302732;50508538;47609989;10192;137;670
333816834;423814467;49814936;47424030;2624;137;672
351456254;449509713;53622970;50937792;10376;137;674
333326966;422242754;49395137;47079694;2991;137;676
335359432;424548596;49798456;47184032;10253;137;678
333685425;422267840;49273677;46748676;2502;137;680
340261153;431985405;51065543;48096466;10498;137;682
333226563;424818859;50457939;48043742;2197;137;684
333320375;424249280;50418451;47571352;11170;137;686
335634089;425852181;49920283;47469765;2686;137;688
335245235;426336250;50534966;47788992;9582;137;690
334609006;426467536;50600822;48182216;2441;137;692
334631467;426028084;50694572;47909237;9277;137;694
345192903;438132484;51063834;48537636;3113;137;696
337370841;429237366;50865287;48247350;10620;137;698
336935783;428028262;50493096;47953961;2503;137;700
335523250;428793702;51269644;48531459;10010;137;702
344967562;438916113;51571706;49059870;2868;137;704
335955255;427336919;50575005;47916469;10986;137;706
199214700;250446136;28945849;27269812;2442;0;708
116429084;144729061;16364704;15137474;4639;0;710
335973078;424513805;49599239;46839600;8911;137;712
170837270;214809753;24858151;23259199;5310;0;714
341658610;431942864;50148004;47480924;7385;137;716
338259571;429257202;50554497;47759678;11475;137;718
326313190;412907878;48341917;45890265;1587;137;720
352748547;450534491;53475266;50652605;10193;137;722
330252145;418167265;49040402;46558236;3052;137;724
340203414;433650989;51682851;48970391;12146;137;726
336413507;426652534;49938715;47465316;1526;137;728
341114300;433297658;51107475;48235926;11292;137;730
327773941;416479097;49376094;46891179;1831;137;732
334183898;427531803;51486440;48745624;11963;137;734
333265748;423159318;49954278;47308987;3418;137;736
332769534;422235491;49998346;47161385;11840;137;738
341426005;434658311;51445608;48837319;2258;137;740
338690112;431913628;51418997;48694573;11475;137;742
325434530;415940036;50086846;47881586;3112;137;744
358973019;455235040;52959337;50050749;11719;137;746
330706795;421295613;50120233;47642380;2075;137;748
348916465;445269429;52895190;49989828;11719;137;750
338275257;429790342;50467095;48108695;2624;137;752
336338922;427835025;50775993;47883926;10986;137;754
333649414;423758559;49962518;47476697;2136;137;756
188666509;236537542;27161307;25382362;6226;0;758
327903457;413552408;48235717;45632035;8911;137;760
344603427;439175999;52007741;49236263;12756;137;762
255964799;322260161;37391140;35200618;2198;0;764
339750045;430475522;50333245;47624493;12451;137;766
265347831;332817874;38345300;36120984;3907;0;768
335366451;425536631;49978998;47342262;12146;137;770
334109558;423458938;49661799;47230704;2381;137;772
353737986;452441896;53931380;51169509;11596;137;774
329527904;419715722;49901667;47420510;2991;137;776
331685003;420471885;49665950;46814829;11108;137;778
330388497;419648462;49858088;47423530;2990;137;780
79106975;100501879;12083587;11173163;3418;0;782
330329660;417990019;49210934;46454088;11902;137;784
336317620;425609995;49685664;46874491;10986;137;786
341239178;436636943;52487414;49901017;2991;137;788
328499647;419202906;50336174;47583121;12207;137;790
331122504;420209434;49513362;46944656;2868;137;792
338227162;429367614;50757011;47940028;11597;137;794
344854097;439810154;52140186;49656774;4577;137;796
353508067;451996646;54011031;51218407;11841;137;798
326858844;417016145;49902033;47505700;3601;137;800
331645818;421405476;49904230;47135264;10803;137;802
327006548;417524260;50147454;47654629;2381;137;804
331133063;421798298;50350885;47522802;12329;137;806
332986575;421994891;49532344;46967943;3906;137;808
363326341;465186736;55455546;52616138;11292;137;810
333008364;421627522;49398189;46824807;1586;137;812
335388485;430284055;52108448;49416975;11902;137;814
328572035;416776094;49165341;46668168;2197;137;816
331525092;420130089;49469966;46714780;12085;137;818
333792908;423919935;49901911;47332371;2746;137;820
329447765;421370565;50841545;47995881;12024;137;822
329172620;418319302;49501277;47014107;3235;137;824
330559639;420033898;49752009;46869582;11841;137;826
316136397;407233821;50402703;47908107;2686;137;828
329133435;419418848;50139154;47286733;12451;137;830
326360493;414405067;48968319;46427107;4272;137;832
334111144;424980968;50619072;47815512;11231;137;834
342736793;436232343;51553701;48949282;4700;137;836
350720171;447681288;53082811;50154193;12085;137;838
331663275;420152977;49227169;46614791;3052;137;840
332267337;421228109;49681452;46755137;12268;137;842
328058852;417715666;49581050;47133549;2868;137;844
354266061;453242675;54042952;51219322;11902;137;846
331683232;420062279;49551387;46992083;3846;137;848
332830996;427664371;51942738;49259406;12145;137;850
317833354;412977153;52345569;50046176;2564;137;852
333192506;424499951;50581291;47658528;12146;137;854
330120005;419859765;50361748;47246093;2503;137;856
178192598;224672765;26332757;24551606;5859;0;858
328927442;415439915;48588987;45787107;8972;137;860
331298103;421200826;50083245;47501061;12085;137;862
341859354;436833843;51909840;49380817;3051;137;864
334802305;427347966;51202078;48447970;12451;137;866
176960851;222476664;25849483;24299389;2136;0;868
4044912;5239000;776488;567640;793;0;870
3963369;5179125;762327;558850;244;0;872
3875600;5062182;759153;556770;244;0;874
3967214;5153369;758848;555752;244;0;876
3931996;5103991;771543;559664;610;0;878
3910512;5073168;763304;557591;550;0;880
4018300;5195910;769835;562626;610;0;882
3947561;5121142;763792;558227;733;0;884
3940664;5116320;772337;560071;610;0;886
4032704;5214342;770506;562748;915;0;888
3936391;5136889;774046;563364;244;0;890
3935354;5118822;770994;564706;672;0;892
4028310;5236498;780211;565693;672;0;894
3998280;5194567;778868;572011;794;0;896
3955983;5133714;776670;564706;1221;0;898
4028188;5228014;776365;565126;1037;0;900
3969778;5171129;782102;565708;1281;0;902
3973379;5163072;777830;565715;1159;0;904
4056203;5269701;785825;567984;1159;0;906
3975332;5176988;784422;565944;1098;0;908
4010549;5208544;790587;570346;1465;0;910
4062246;5285936;787718;570973;1221;0;912
4001515;5208544;787169;568432;1038;0;914
4055593;5259447;789304;573773;977;0;916
4103200;5325487;796629;576417;1038;0;918
4014577;5213548;786863;569121;1037;0;920
4021474;5237291;793394;572408;915;0;922
4076283;5289476;790403;571002;1465;0;924
4042959;5262987;797178;573294;915;0;926
4062490;5267931;791990;573046;916;0;928
4066457;5268419;790281;571717;1099;0;930
4145924;5361497;799131;576620;1099;0;932
4087392;5298693;797240;572242;915;0;934
4062551;5276536;793211;573220;915;0;936
4031423;5250353;794005;571512;1160;0;938
4208668;5473618;817259;593825;1160;0;940
4076650;5301133;809263;578104;672;0;942
4156056;5395128;810728;589759;915;0;944
4124135;5373766;808469;584356;977;0;946
4080800;5307603;802611;581408;794;0;948
4129506;5356615;805052;576535;1221;0;950
4070241;5287706;799314;578823;1342;0;952
4050344;5276110;802549;579100;1098;0;954
4167531;5405992;808103;583557;1037;0;956
4074697;5305529;812193;580659;1099;0;958
4053457;5287524;802305;581047;1160;0;960
4154408;5398851;805479;581604;1282;0;962
4138479;5374132;810178;585386;977;0;964
4047109;5263475;804564;578397;916;0;966
4155446;5382493;805295;583283;1099;0;968
4127492;5356615;814268;585526;1343;0;970
4108021;5352098;816099;586510;1465;0;972
4197866;5453050;818662;586588;1099;0;974
4111318;5355821;812681;584441;916;0;976
4132497;5380723;823972;591220;1098;0;978
4149220;5397569;813169;583558;793;0;980
4251210;5541794;843198;609394;733;0;982
4155202;5399644;813169;585826;793;0;984
4155629;5406969;819517;588562;732;0;986
4149098;5413988;828672;595527;855;0;988
4198659;5454759;821287;586669;1037;0;990
4145497;5382555;817991;588102;915;0;992
4136830;5379747;822080;590238;1099;0;994
4209645;5463060;822081;590184;1404;0;996
4146047;5395128;825743;591183;1282;0;998
4139333;5401537;829771;599300;1343;0;1000
4306752;5570116;834715;596441;1099;0;1002
4183522;5453539;828367;598344;1099;0;1004
4156117;5407151;829771;592245;1160;0;1006
4219106;5490098;825071;592776;1343;0;1008
4168142;5435655;831480;596764;1160;0;1010
4143910;5411241;835630;596464;1037;0;1012
4249684;5518175;836850;597243;1037;0;1014
4176625;5428880;830625;595048;855;0;1016
4215382;5477525;833555;595717;1343;0;1018
4199636;5469590;834410;596770;610;0;1020
4213063;5495469;844786;603564;854;0;1022
4264638;5550218;834837;597778;915;0;1024
