CORE;CPU;DRAM;DURATION;UNCORE;EXIT_CODE;INPUT
524168;871031;166076;145582;488;0;2
933286;1310300;195922;169319;244;0;4
1399593;1946406;275023;246245;244;0;6
1822444;2521845;355834;318939;732;0;8
2215693;3077568;436095;393489;610;0;10
2629205;3627065;514403;466620;977;0;12
4110341;5083300;492614;448434;428;0;14
4749256;5877487;575987;520343;976;0;16
5203173;6427413;633543;573014;1037;0;18
5168200;6688032;769774;702795;1954;0;20
4762316;6562117;903257;836299;671;0;22
5581102;7442242;950620;873318;1526;0;24
9851110;12092193;1133603;1053340;1282;0;26
8566323;10842135;1143247;1062211;732;0;28
6583479;9043006;1238888;1151648;1404;0;30
8483438;10728244;1146420;1059566;793;0;32
9700659;11956817;1155332;1061193;1648;0;34
8146036;10979647;1425289;1329666;1465;0;36
9502661;12333892;1434323;1326500;2686;0;38
11522920;14184900;1360898;1255588;1282;0;40
9235633;12540740;1662166;1551961;2198;0;42
11575777;14640283;1560543;1446511;1282;0;44
12239593;15502035;1654415;1531478;2502;0;46
11033724;14728783;1867243;1741215;1831;0;48
14327905;17625443;1696406;1565254;1892;0;50
11215304;15341880;2076472;1941437;2991;0;52
15376120;18935254;1813655;1677889;1221;0;54
13240750;17730240;2263788;2114423;2075;0;56
16445271;20355600;1992366;1838836;1953;0;58
13342740;17964614;2320978;2170681;2930;0;60
18771925;23094606;2198664;2042338;2258;0;62
14451196;19353466;2470636;2311666;2624;0;64
17799027;22341556;2304987;2139392;2685;0;66
16526447;21471869;2500848;2334589;2076;0;68
17409989;22551212;2592950;2421858;2685;0;70
19294140;24191344;2492242;2313604;2563;0;72
16392903;22185124;2902580;2723493;2869;0;74
16039082;21999761;2983513;2803468;2747;0;76
20928047;26194879;2680291;2493544;2991;0;78
17194963;23518251;3165153;2975566;3051;0;80
21585394;27340506;2904961;2719310;1648;0;82
18271010;24739378;3246329;3041574;2869;0;84
18390822;25165585;3402090;3197129;2868;0;86
23421327;29611375;3130790;2925957;2869;0;88
18897352;25913752;3519644;3306347;3540;0;90
22906618;29453050;3314933;3098036;2380;0;92
22816775;29668015;3454520;3239564;3113;0;94
24035156;31172649;3608878;3376436;3418;0;96
24985593;31969645;3521171;3291863;2991;0;98
27343070;34831332;3812856;3526373;2564;0;100
22666629;31043500;4229603;3947832;3479;0;102
26634941;33937413;3693533;3448134;3540;0;104
27138541;34571872;3749807;3500959;3051;0;106
23615968;32088236;4247669;3999980;2990;0;108
27496023;35416657;4002614;3745830;2990;0;110
27969594;35843170;3976125;3725896;2991;0;112
28843738;36925503;4080556;3815174;2624;0;114
29330492;37599574;4172780;3903313;2198;0;116
29836594;38303612;4253530;3989753;2747;0;118
30551863;39283347;4396839;4121841;3174;0;120
30736310;39546285;4444020;4160390;3662;0;122
31035382;39770528;4416249;4131784;3723;0;124
31959391;40915728;4523609;4233795;3479;0;126
32889869;42016739;4611011;4316364;3540;0;128
30028732;39687704;4856982;4561812;3479;0;130
27710867;37999414;5148791;4854527;3357;0;132
33116004;42801099;4884937;4578023;4028;0;134
33152015;42863782;4901843;4596639;2929;0;136
33603308;43460826;4969592;4655239;3906;0;138
34525120;44751717;5144945;4826147;3723;0;140
34872958;45086615;5148424;4827143;3479;0;142
34634128;45048225;5244860;4921626;3418;0;144
35553742;46050785;5284349;4959471;3296;0;146
35740692;46505802;5423082;5083863;4517;0;148
36803128;47467530;5382798;5042944;3418;0;150
39830282;50579582;5430955;5085351;3357;0;152
33619726;45362676;5887863;5546539;4151;0;154
38541588;49788386;5660691;5314353;3662;0;156
41094621;52123890;5571641;5220470;3723;0;158
34410373;46729738;6173385;5812502;4761;0;160
41231096;52665392;5766098;5402728;3356;0;162
41574417;53077745;5799851;5439579;3967;0;164
40343952;52441089;6077011;5710564;3662;0;166
39784017;52208972;6246321;5869669;4273;0;168
40355548;52752856;6240646;5858961;4639;0;170
41182511;53810104;6349105;5964718;4089;0;172
45168830;57132239;6048203;5669575;4151;0;174
37783472;51281607;6767683;6381639;4699;0;176
46221561;58429660;6175216;5773538;4211;0;178
42936536;55987894;6554975;6165548;4212;0;180
47195741;59753265;6333724;5935384;4333;0;182
43445079;56920386;6772627;6359325;4395;0;184
45981084;59246614;6680586;6268986;3601;0;186
41791397;55921732;7087812;6676284;4334;0;188
45969182;59979461;7030439;6624140;4212;0;190
46543155;60415617;6988080;6561068;4272;0;192
47424501;61524928;7095075;6668246;4090;0;194
46765383;61011196;7169598;6735578;3967;0;196
48959408;63063864;7101911;6663490;4639;0;198
48981686;63405417;7251812;6826022;4456;0;200
51827504;65850173;7054182;6618731;3785;0;202
51090201;65463944;7230511;6792767;4578;0;204
48756345;63547384;7421979;6993211;3235;0;206
52098072;66817700;7406659;6956111;4578;0;208
50300348;65764602;7767436;7307750;5005;0;210
50388909;66036025;7872905;7401526;4089;0;212
53652511;68781013;7610699;7139940;4943;0;214
55013043;70215579;7658733;7194059;4882;0;216
51868031;68374947;8269937;7793536;4455;0;218
55662394;71167482;7816814;7343916;4578;0;220
51233634;67610179;8213724;7733749;4639;0;222
56639747;72417051;7955851;7460265;5127;0;224
57085181;73000972;8012675;7523201;4272;0;226
57224158;73215511;8057718;7561993;4821;0;228
58188511;74526481;8215127;7723559;4577;0;230
58528293;74930839;8268167;7760449;4517;0;232
54496260;72129515;8812722;8344122;3785;0;234
59427949;76203113;8430642;7924599;5066;0;236
59569183;76382190;8463662;7935502;5493;0;238
59791595;76708361;8524270;7997896;4944;0;240
60614713;77843307;8674661;8135169;5371;0;242
60783902;78042953;8687234;8146886;5310;0;244
59433075;77163926;8916481;8385169;4821;0;246
63106467;80802955;8890297;8400267;1953;0;248
57536962;75933766;9223365;8686133;5371;0;250
62520531;80420082;9008766;8452344;5554;0;252
62608727;80566810;9039161;8487129;5127;0;254
64527239;82876070;9243323;8689429;4822;0;256
64889116;83017854;9124550;8574846;5616;0;258
61752528;80625770;9477576;8930957;5004;0;260
66082777;84503079;9269385;8705791;4700;0;262
66923473;85474451;9349402;8770882;5798;0;264
66100539;84653470;9343848;8777547;5432;0;266
60845548;80754798;9989903;9407253;5432;0;268
66737195;86209496;9772802;9195657;5432;0;270
67228649;86688377;9775182;9220262;3296;0;272
69841740;89101457;9695959;9109260;6470;0;274
69076240;88716875;9876989;9297185;5920;0;276
71298951;92395576;10567417;9971248;6287;0;278
68790229;88775408;10058690;9449559;5554;0;280
68083505;88406146;10216099;9611231;5554;0;282
72120909;91951363;9964207;9396793;2747;0;284
70689699;90864392;10151463;9539205;5127;0;286
71587097;92056221;10302830;9678069;6287;0;288
68736274;89921034;10635898;10019349;6775;0;290
71104677;92229012;10626193;9992258;7019;0;292
71107728;92215095;10609043;9978424;5433;0;294
71998962;92732611;10407505;9845077;1282;0;296
72144773;93489140;10732089;10100063;6409;0;298
75150747;96327940;10657321;10024799;6653;0;300
73076473;94888124;10948580;10308159;6287;0;302
77049974;98466545;10790011;10130928;5615;0;304
76200794;98512810;11216585;10553767;6531;0;306
78323164;99610707;10726047;10079994;6165;0;308
76274585;98391716;11121492;10459123;6042;0;310
77862228;99810413;11039767;10382173;5494;0;312
79888650;102123213;11183321;10528803;5798;0;314
77563888;100135058;11339632;10680495;5799;0;316
78667828;101485824;11476105;10804031;5554;0;318
78563581;101414474;11506867;10816389;6165;0;320
79207317;102207930;11567720;10894132;6470;0;322
80550392;103860757;11728851;11027923;6592;0;324
82171421;105074438;11506501;10846061;5920;0;326
78926983;102613080;11893280;11206572;5188;0;328
82561312;105777195;11686493;10985713;6409;0;330
79796243;104107278;12196014;11494633;6043;0;332
84151396;107490753;11757599;11049625;6043;0;334
80021524;104496437;12281279;11602031;3784;0;336
85012173;108660855;11906891;11183217;6470;0;338
85607874;109534815;12035674;11320981;6775;0;340
86181786;110526816;12245391;11523569;5737;0;342
85626550;110106530;12307768;11580599;6409;0;344
82436557;107129303;12387176;11704059;3540;0;346
87878193;112646623;12450591;11724024;5921;0;348
87791767;112454058;12426542;11677102;6470;0;350
83411103;109039760;12864896;12109406;6104;0;352
87859944;112600908;12454009;11710826;7080;0;354
88440753;113496475;12576750;11882889;3418;0;356
90323744;115868600;12842863;12069667;7141;0;358
89953871;115461802;12827848;12067741;7630;0;360
90809887;116605781;12972929;12198284;7446;0;362
90782787;116543341;12948392;12191261;6714;0;364
90282362;116044564;12914578;12226417;2136;0;366
92072152;118379213;13234952;12444719;7019;0;368
93065863;119209290;13161344;12368000;6957;0;370
89250260;116172616;13513455;12750308;6835;0;372
94795900;121321588;13336513;12548490;7507;0;374
92238838;118539919;13175138;12474475;2014;0;376
93381841;120177610;13483424;12679223;6225;0;378
95496398;122849905;13749293;12952858;6836;0;380
95823180;122605094;13486842;12676643;7446;0;382
92024972;119460815;13814295;12991835;6775;0;384
96544308;123537160;13585964;12764842;7324;0;386
97619012;124748155;13680262;12848239;5859;0;388
97561274;125229232;13911890;13080096;7141;0;390
96885800;124933457;14077357;13272553;6897;0;392
98628105;126034407;13803736;12970495;6103;0;394
99002615;126661541;13930872;13089940;8667;0;396
98173638;126717083;14331506;13485162;7019;0;398
100305041;128265419;14064600;13230847;6226;0;400
101348129;129804661;14314172;13461138;6958;0;402
99603505;128395667;14477868;13621446;7386;0;404
102603070;130957184;14298364;13439475;6653;0;406
99957874;128835913;14508081;13686099;6591;0;408
104306069;133382349;14622948;13752759;6775;0;410
103223429;132585354;14767907;13893921;7507;0;412
103748209;132938015;14693017;13815536;6775;0;414
102799053;131923613;14630456;13793851;5676;0;416
104251381;133799524;14849510;13975970;6835;0;418
104991064;134661276;14931541;14032504;7690;0;420
105197423;134858236;14928368;14026442;9033;0;422
105149511;135294331;15140342;14297666;4882;0;424
108394987;138474255;15111777;14231332;6653;0;426
105403844;135999652;15377158;14467417;7812;0;428
109256862;139610666;15251242;14351037;8667;0;430
105824986;135933429;15130210;14266682;5127;0;432
107346588;137935804;15393394;14469720;7629;0;434
110998068;141570073;15393332;14472415;7873;0;436
107418854;138432629;15616598;14675795;8789;0;438
108408475;139318491;15517172;14653946;4517;0;440
112123249;143244201;15652120;14713565;8118;0;442
111177755;142857544;15905050;14986011;7751;0;444
111041952;142892090;16015035;15078080;7569;0;446
111112692;142616395;15815938;14947228;3906;0;448
113300064;144787532;15851034;14893259;7690;0;450
113052323;145094111;16126545;15166563;7935;0;452
115967050;148900803;16561175;15600676;9033;0;454
112439409;144690304;16182331;15287594;4090;0;456
112798905;144926082;16147054;15211373;7690;0;458
116580024;149323226;16457721;15479055;7629;0;460
117056402;149996503;16561786;15574268;10010;0;462
115937508;148512376;16343220;15438537;3357;0;464
117358037;150311077;16560504;15577537;7324;0;466
117919926;151263590;16773272;15780924;7446;0;468
117074895;150300396;16708514;15719905;9827;0;470
118205325;151802712;16817157;15952985;3601;0;472
117746586;151163798;16802631;15826375;7935;0;474
117507207;150845623;16777606;15791482;8423;0;476
119032105;152701635;16949786;15935493;9094;0;478
118058047;151677285;16834734;15941329;2869;0;480
119371947;153109227;16981707;15967919;8362;0;482
121177424;155329741;17182452;16157860;8972;0;484
121841973;156165127;17264910;16239223;8179;0;486
120356626;154645051;17176043;16267936;1892;0;488
122138970;156985804;17486954;16476637;9583;0;490
122148979;156913050;17467301;16437161;8117;0;492
125030686;160547502;17830520;16826291;7690;0;494
122581657;157151453;17307023;16411965;794;0;496
125306625;160437090;17650895;16631534;8545;0;498
126178571;161773329;17902664;16836970;8606;0;500
124360522;160056902;17928054;16879007;8911;0;502
124592577;160194170;17882889;16832352;8057;0;504
126376691;161737196;17801713;16737942;8301;0;506
126337140;161719984;17787918;16748414;8484;0;508
125825911;161829237;18006424;17083824;1404;0;510
125790511;161926099;18165969;17091894;8789;0;512
131511443;168020382;18366469;17278591;8911;0;514
128435828;164704412;18214858;17167509;7874;0;516
127169474;163949471;18451918;17387950;9583;0;518
130047702;166270632;18239700;17142397;9094;0;520
129784335;166432375;18415236;17334225;7813;0;522
129356298;166527405;18693922;17589731;9094;0;524
132685085;169550286;18540296;17460978;9217;0;526
133041041;169973564;18594435;17498021;8179;0;528
132128018;169766289;18915601;17812236;8667;0;530
132935634;170441580;18865369;17740912;9644;0;532
132366727;169666497;18763441;17667589;9582;0;534
134847372;173118270;19238598;18119006;8911;0;536
134761557;172822007;19158764;18025426;9094;0;538
133238734;171090077;19005688;17926489;7568;0;540
135217977;173517378;19264294;18109985;8850;0;542
136954240;175442849;19330456;18190938;8789;0;544
134167991;172682907;19360302;18246747;7812;0;546
138772899;177316868;19392895;18256677;10254;0;548
135426472;174502544;19631298;18498978;9155;0;550
138191175;176996128;19480236;18368411;8240;0;552
138612621;177602084;19614757;18468516;9948;0;554
137175491;176686376;19849741;18711229;9156;0;556
141278813;180933313;19865305;18773732;7202;0;558
141070196;180592250;19869273;18712804;9765;0;560
139114818;178955658;20030100;18862238;9644;0;562
140286079;180343044;20101267;18981295;6897;0;564
142420656;182103293;19948252;18778468;8667;0;566
141899478;181921470;20127206;18957464;9155;0;568
140376899;180657741;20205209;19094906;6958;0;570
142130251;182671224;20354745;19174741;11230;0;572
143323119;183290791;20119578;18914504;9339;0;574
143804746;184105669;20208200;19086980;6775;0;576
142322207;182873738;20407846;19218095;9766;0;578
146935231;188542181;20906563;19687173;10742;0;580
144300534;185418959;20663460;19499774;6348;0;582
145250666;186611338;20784676;19581547;10132;0;584
145965691;187417977;20850167;19629529;11170;0;586
147062978;188656499;20891609;19714140;7202;0;588
146409904;187551217;20685067;19467295;9461;0;590
148467637;190298646;21047920;19788256;9461;0;592
147300465;188933598;20906135;19733832;6592;0;594
149115951;191406554;21250739;20015039;9949;0;596
148667894;190698913;21148200;19880221;10010;0;598
149163864;191457640;21241096;20044601;5493;0;600
150241071;192769892;21343207;20111645;10742;0;602
149911664;192406490;21375800;20104751;10376;0;604
152139198;195477649;21711493;20547566;5371;0;606
153548313;196734909;21713445;20445527;10132;0;608
151752236;194545462;21535895;20262998;10315;0;610
152451758;195496814;21621588;20405423;7385;0;612
153567845;196786057;21746099;20457207;10498;0;614
153525425;197233443;21953435;20673112;10864;0;616
152318579;195787157;21808355;20600680;4578;0;618
154605073;198638407;22133427;20845423;11353;0;620
159687885;204240933;22403569;21098438;10376;0;622
155336455;199140176;21974553;20776085;5371;0;624
154768952;199028605;22256169;20943599;10071;0;626
154873383;199076517;22234074;20910956;11596;0;628
155757170;199559059;22000859;20766275;5738;0;630
158947103;203355376;22355106;21029949;11841;0;632
159209676;205154931;23044374;21749970;9521;0;634
159718402;204592311;22493839;21289246;4944;0;636
159289632;204101101;22566715;21202659;10986;0;638
157468103;202712798;22733035;21408482;11109;0;640
161060256;206191672;22658573;21416217;4822;0;642
159848102;205186547;22809695;21463639;11536;0;644
160457231;206077231;22924135;21605883;10742;0;646
162974009;208544633;22851931;21619829;4944;0;648
160081805;206215292;23176211;21839288;12024;0;650
163877266;209451002;22918703;21574521;10315;0;652
163653268;209300673;22915041;21665498;4943;0;654
168297115;214799011;23393861;22025406;11474;0;656
164693671;211945014;23734864;22381439;10437;0;658
166419557;212639836;23145266;21922414;5310;0;660
171440296;220230760;24631284;23063900;11231;0;662
164332404;211053170;23449586;22118714;10803;0;664
164037421;210320873;23222474;21967004;4212;0;666
165100285;212320135;23723267;22355549;11292;0;668
167800474;214502198;23521058;22109163;11841;0;670
165866275;213604312;23899109;22656522;3906;0;672
167761899;215128173;23838440;22429321;10498;0;674
170320426;218188956;24077880;22681113;11902;0;676
169166742;216057126;23511170;22278207;3967;0;678
167940183;215953671;24142394;22722129;12390;0;680
169201471;217290887;24211852;22765649;11413;0;682
171878222;219995103;24124328;22869424;3418;0;684
170370780;218504323;24193481;22785885;10681;0;686
170503348;219187428;24510192;23052107;11291;0;688
168653438;216500789;23992248;22740673;3723;0;690
174332805;223325234;24603208;23197067;11719;0;692
176296789;225864656;24893063;23471028;10986;0;694
172554307;221591473;24536253;23281017;3418;0;696
172994369;222220683;24731199;23296582;12390;0;698
173013229;222280803;24761045;23340460;10864;0;700
173447127;222554362;24601621;23319477;4578;0;702
177870943;227971706;25162411;23700181;10315;0;704
176038001;225459140;24867734;23375621;11291;0;706
175002543;224475439;24834409;23489451;3479;0;708
179147247;229651085;25341122;23897306;11657;0;710
177773226;227856839;25203976;23700865;12939;0;712
177182652;227309172;25084775;23808757;2564;0;714
179248747;229912376;25430843;23988905;12268;0;716
180019681;230967549;25577205;24102817;10864;0;718
178266877;228837610;25370723;24036278;2686;0;720
178794708;229366783;25425899;23940420;12512;0;722
180389919;231598407;25743159;24235892;12146;0;724
179263640;230176230;25488888;24178520;1770;0;726
181158349;232521500;25818659;24311317;11413;0;728
181848717;233623242;26040582;24523986;11108;0;730
179651884;230509236;25468258;24147418;2015;0;732
182884785;234389354;25878535;24386897;11230;0;734
185785718;238053040;26261408;24752336;12512;0;736
183204854;234906137;25862238;24538052;2685;0;738
182695455;234640330;26100214;24585199;10437;0;740
184496842;236940433;26362969;24804267;13062;0;742
181353052;233047621;25944209;24573784;1709;0;744
191841855;245397138;26913444;25352167;12024;0;746
187054513;239561459;26413141;24883244;12818;0;748
188705693;241690116;26532342;25192418;1159;0;750
187526131;240931696;26878411;25286683;12085;0;752
188086738;241428032;26764702;25246990;12024;0;754
189349491;242355947;26648430;25093260;12817;0;756
199937720;255319537;27781362;26230078;12024;0;758
192357174;246027080;26957573;25410466;12512;0;760
190339051;244348190;27157218;25563517;12634;0;762
189708743;243599474;27074882;25504584;11963;0;764
194096976;248245153;27220207;25624297;12695;0;766
188756292;242883107;27205558;25606316;11231;0;768
193323846;247287269;27158134;25552600;13000;0;770
190960021;245528668;27410147;25811263;11962;0;772
194396658;248894382;27373160;25781016;12085;0;774
197806317;252644617;27556265;25966590;12695;0;776
195439625;249885530;27410879;25792620;12146;0;778
198815592;253947470;27699026;26128907;13061;0;780
193330926;248613560;27771657;26168241;11719;0;782
199258767;254740741;27898488;26258409;12024;0;784
196523667;252861657;28296375;26675341;12024;0;786
195395190;250393707;27689382;26034421;13549;0;788
196852707;252400172;27930958;26303247;11291;0;790
196342210;252338649;28174611;26525479;12023;0;792
198929178;254466511;27929128;26303417;11474;0;794
196322801;252306666;28180836;26507139;12146;0;796
199745155;256489822;28471058;26847425;12390;0;798
200568395;256541457;28146046;26486774;11963;0;800
197776716;254087301;28311328;26679089;11474;0;802
203070769;260856510;28986315;27359911;13733;0;804
200843114;257668042;28571765;26908112;11231;0;806
202454865;259079048;28484363;26792453;11719;0;808
200794774;257778210;28598743;26991691;11170;0;810
204818750;261614442;28550403;26876631;12390;0;812
200770910;257712475;28598132;26974294;11719;0;814
200722326;257940868;28745471;27102946;14954;0;816
201975679;259292061;28829638;27155562;11170;0;818
207184650;265751516;29444138;27720204;13489;0;820
204693629;262054932;28791430;27144708;10498;0;822
205839683;263773434;29131639;27430029;13122;0;824
205553612;263615963;29150316;27493655;12146;0;826
209628248;268740950;29681991;27976376;13671;0;828
206782979;265246208;29348741;27709731;11596;0;830
207963334;266729603;29492905;27805830;13916;0;832
208463700;267533800;29608079;27962493;10071;0;834
208351029;267302233;29625717;27905850;12817;0;836
209741406;269244855;29862717;28181256;11048;0;838
211952705;271787085;30069381;28343206;11963;0;840
210588938;270027141;29807297;28152270;11170;0;842
209212477;268427292;29782883;28060316;13489;0;844
217793266;278979815;30664106;29003257;11779;0;846
211423470;270948464;29939926;28178573;12878;0;848
210283458;269684552;29859421;28145059;10743;0;850
213227665;273398043;30226912;28512026;13061;0;852
212869389;272887302;30121566;28449180;10498;0;854
213362185;273426424;30211592;28445454;14709;0;856
212485723;272689243;30231673;28516988;10681;0;858
213829775;274832182;30645429;28898587;12329;0;860
215791684;276915062;30705610;28985886;10620;0;862
212732854;272678745;30192977;28400875;12817;0;864
216561580;277411033;30540633;28835761;10437;0;866
215590147;276854577;30795453;28998580;12878;0;868
214943236;276377833;30857404;29112359;11841;0;870
219370166;280938428;30942426;29149732;13733;0;872
219084095;281142102;31126569;29397456;10925;0;874
216453364;278217488;31080181;29243637;14221;0;876
219811449;281482739;30999738;29226742;10742;0;878
220228196;282784799;31455853;29625901;14221;0;880
217217401;278945941;31002362;29259814;9521;0;882
222344341;284529606;31299907;29449998;14282;0;884
218836659;281558117;31496135;29719029;10193;0;886
225147434;288185664;31672160;29832970;13977;0;888
221760723;283846930;31203045;29440635;10620;0;890
221260054;283766730;31431133;29569093;14893;0;892
220944441;283833014;31578715;29821953;10254;0;894
226358003;289355399;31709208;29837075;14526;0;896
224246497;286971555;31573161;29754839;9887;0;898
224937352;287922603;31687541;29817064;14832;0;900
222100872;285601930;31880777;30094508;10071;0;902
230278646;294334574;32185403;30338908;15259;0;904
223670020;286928526;31760355;30003962;9339;0;906
229071557;293669414;32513772;30587701;14954;0;908
231391071;295794775;32372415;30553022;10437;0;910
228887232;293071943;32287881;30383794;13794;0;912
225990327;290077444;32190897;30398731;8972;0;914
225408298;289633841;32320108;30398694;14526;0;916
228594568;292585067;32123209;30343218;10071;0;918
228271632;293376385;32699563;30840234;13489;0;920
229243371;294615152;32823158;30974023;10071;0;922
232495560;297816560;32819130;30936996;13793;0;924
229208763;293710613;32374550;30564512;10498;0;926
232480972;297238619;32581886;30654881;14160;0;928
231471270;297165682;32989540;31144667;8789;0;930
233217054;299373562;33297461;31313391;15441;0;932
230657918;296375340;32976234;31160027;9399;0;934
232107377;297467256;32890113;30922310;14466;0;936
233105421;298671415;32906593;31055467;10742;0;938
234041698;300218164;33252539;31322056;13549;0;940
234083263;299702358;32958717;31111939;9033;0;942
236070318;302782916;33515234;31588624;13550;0;944
234400462;300383997;33143714;31273259;10926;0;946
234667002;301304588;33486609;31569058;14099;0;948
235465584;301643942;33251380;31369862;10498;0;950
237872316;305040723;33723791;31792151;13977;0;952
236524480;303395464;33537634;31686247;9277;0;954
240204219;308307194;34233982;32253062;14648;0;956
237936036;305347974;33827123;31954382;9216;0;958
237718447;304906141;33790013;31786488;15259;0;960
236439276;303266680;33587927;31684714;9277;0;962
239645077;307300849;33982457;32021684;16418;0;964
241261955;309876831;34363804;32515641;9460;0;966
240418818;308565372;34256077;32246408;14465;0;968
238139710;305665111;33918065;32021615;8850;0;970
245976910;313687429;34124913;32074413;15015;0;972
243082020;312573785;34797091;32939234;9521;0;974
241725333;310512388;34555942;32556101;16479;0;976
241016167;309507631;34366916;32477914;8912;0;978
247551856;316211043;34490696;32527877;14770;0;980
241258599;309850403;34468601;32520711;8545;0;982
244448959;313771780;34879855;32818420;15381;0;984
250110017;320240818;35183625;33252796;10132;0;986
243984727;312680535;34583102;32529395;14038;0;988
248329199;317567913;34749911;32860783;9278;0;990
243650926;313014519;34892550;32851124;15564;0;992
256869216;328477736;35905670;33957417;9338;0;994
246768350;316241072;35004305;32913061;15563;0;996
248458592;318696633;35243135;33308657;9582;0;998
247822913;318722694;35625336;33586855;15686;0;1000
250379242;320598788;35337189;33314517;8972;0;1002
247160012;317416058;35299776;33260945;15808;0;1004
248171850;318823281;35525299;33518297;8056;0;1006
252695459;323485378;35593719;33514786;15380;0;1008
251188810;323141507;36044708;34122517;8606;0;1010
251523709;321908050;35394441;33336120;16785;0;1012
252006557;322647550;35468110;33508105;7995;0;1014
251670620;323111539;35933929;33819568;15442;0;1016
249378634;320010839;35447908;33507359;9216;0;1018
256511185;328131851;36053008;33916395;15015;0;1020
252597803;323991236;35866302;33869323;9399;0;1022
254776936;326973284;36283050;34173828;16052;0;1024
