CORE;CPU;DRAM;DURATION;UNCORE;EXIT_CODE;INPUT
524412;879942;166503;146277;611;0;2
949399;1339291;203125;171395;977;0;4
1342160;1888789;271239;242744;794;0;6
1860225;2561639;358886;320220;1343;0;8
2199762;3049919;425292;387516;244;0;10
2605828;3608328;500731;460197;245;0;12
3033196;4185902;591918;538886;1526;0;14
3530691;4855701;665892;612724;793;0;16
3931753;5422715;752134;688165;1831;0;18
4319386;5960373;828306;765924;1648;0;20
4855091;6675337;910093;843164;1770;0;22
5180590;7125348;977598;910575;1343;0;24
5656053;7771281;1065183;985959;1953;0;26
5970627;8201028;1129941;1047362;1709;0;28
6403487;8799477;1208615;1123636;2381;0;30
6788740;9338721;1285580;1194531;1954;0;32
7316204;10064550;1375424;1283085;1587;0;34
7596294;10446873;1433895;1336396;2014;0;36
8841531;12112945;1638179;1530612;2808;0;38
8549356;11732758;1596431;1490706;1465;0;40
9013954;12394500;1700984;1588533;2563;0;42
9595190;13157009;1794124;1673417;2380;0;44
9864416;13537319;1841060;1719508;2686;0;46
10223973;14030055;1908565;1782842;3052;0;48
10637424;14615869;1999140;1870943;2137;0;50
10903292;14972129;2049860;1917336;2075;0;52
11482819;15769796;2158747;2017476;2807;0;54
12144989;16652240;2267084;2127189;2685;0;56
12249298;16820209;2290888;2144254;2197;0;58
12726103;17459428;2375299;2222840;2869;0;60
13063687;17932083;2446161;2290885;2564;0;62
14258692;19549877;2654717;2491699;3174;0;64
14311914;19628245;2667717;2501248;2503;0;66
14391870;19731639;2680658;2509574;3113;0;68
14748436;20227548;2753899;2579518;3418;0;70
15238426;20912422;2847833;2670747;3174;0;72
15919210;21854985;2974419;2794752;2930;0;74
16311299;22398746;3051383;2866926;2137;0;76
16675372;22863467;3095940;2909727;2930;0;78
16873736;23147097;3146904;2950433;2808;0;80
18839613;25681697;3521170;3254377;2991;0;82
18477797;25286312;3417167;3200200;3051;0;84
18332473;25153561;3426017;3210319;2929;0;86
18634718;25533626;3458182;3250743;3296;0;88
19072705;26141901;3548331;3329293;3601;0;90
19386487;26573174;3612600;3391844;3418;0;92
19936594;27332145;3695303;3475512;2929;0;94
20344309;27911916;3792227;3566023;3418;0;96
20838082;28531482;3852956;3618567;3785;0;98
20937691;28721301;3904043;3667268;3418;0;100
21767523;29840133;4038808;3800978;3662;0;102
22136906;30338850;4111562;3857522;3785;0;104
22239323;30496748;4131032;3896775;2930;0;106
22767458;31193523;4212697;3963862;3663;0;108
23238710;31856791;4325001;4061996;3479;0;110
23677918;32442300;4394276;4131356;3540;0;112
24288085;33276343;4499683;4236959;3906;0;114
24750486;33881871;4567615;4298170;3724;0;116
25130368;34479648;4674182;4394884;3906;0;118
25382625;34794649;4706043;4432229;3601;0;120
25871393;35437654;4794910;4509451;4028;0;122
26056269;35730621;4845325;4562408;3479;0;124
26636346;36508756;4939135;4649393;4395;0;126
26899895;36871914;5005175;4706097;3906;0;128
27168632;37290676;5058398;4778787;2929;0;130
28064381;38466088;5207323;4898660;4516;0;132
28304798;38758506;5233751;4922668;3723;0;134
28928698;39641683;5365465;5043418;4395;0;136
28948657;39667501;5362352;5046478;4028;0;138
29543504;40467975;5469713;5144666;4090;0;140
29876816;40935442;5533800;5212780;4517;0;142
30288253;41516861;5627854;5294880;3784;0;144
30769575;42164259;5698594;5366047;4151;0;146
31220318;42806897;5792649;5451501;3723;0;148
31418743;43055798;5815049;5486896;3418;0;150
32534341;44589119;6034104;5681477;5493;0;152
32520424;44550179;6017075;5668429;4273;0;154
32574868;44656869;6046127;5690770;3907;0;156
33677954;46156132;6230148;5867059;5310;0;158
33406408;45807317;6216965;5851825;4700;0;160
34286472;46979250;6349532;5978922;4822;0;162
34347629;47094911;6383467;6010370;4761;0;164
35020235;47999755;6498518;6116310;5249;0;166
35202120;48280882;6530318;6171749;3723;0;168
35767486;49012325;6627302;6240138;4333;0;170
36715177;50323601;6808515;6416749;4883;0;172
36322905;49833003;6779585;6379478;4577;0;174
37030850;50751030;6857709;6459164;4028;0;176
37622340;51554678;6973676;6570697;4944;0;178
38024500;52118763;7049054;6641249;5249;0;180
38193140;52343128;7075239;6667266;5371;0;182
38775719;53116502;7145062;6751499;4089;0;184
39166465;53643784;7234601;6820156;4517;0;186
39503866;54151046;7327557;6910964;5249;0;188
40233418;55178143;7447246;7037281;4273;0;190
40592669;55653544;7521404;7089458;5737;0;192
41205644;56455605;7622051;7185138;5432;0;194
41296159;56624488;7671245;7231021;5066;0;196
42270522;57968113;7849162;7407169;5860;0;198
41009356;56382912;7688152;7307129;1038;0;200
42112869;57711949;7796062;7352487;4639;0;202
42868360;58753329;7936625;7488407;5188;0;204
43361278;59456085;8047831;7592379;6043;0;206
44386666;60862637;8225626;7759651;6104;0;208
44201913;60597562;8211832;7735015;5005;0;210
44623848;61129421;8251932;7773882;5249;0;212
44515144;61062100;8272257;7824312;3540;0;214
45747563;62644554;8448892;7969354;5859;0;216
45828374;62800132;8487283;8010010;5310;0;218
46151249;63271078;8574502;8079591;5554;0;220
46898012;64308917;8707864;8215455;5493;0;222
47211488;64731279;8754189;8267176;5432;0;224
48298704;66138014;8913064;8408161;5982;0;226
46886721;64391070;8749733;8306331;2380;0;228
48151733;65980727;8913185;8408047;5493;0;230
48631895;66654431;9008094;8503856;5921;0;232
48830320;66928479;9040504;8535354;5676;0;234
49508418;67847299;9177710;8655287;5982;0;236
49835810;68340157;9260841;8729954;4822;0;238
51007621;69835576;9416846;8880253;4333;0;240
50930045;69800297;9432044;8903280;5738;0;242
52055103;71312988;9613317;9079459;6043;0;244
51801137;70973635;9579017;9035828;6165;0;246
52112476;71414674;9658362;9112685;5737;0;248
52768419;72323545;9783910;9225788;6958;0;250
52572131;72096862;9758703;9226893;3662;0;252
53091905;72763791;9836401;9272665;6531;0;254
54604170;74781974;10080357;9512356;6714;0;256
54718487;75037589;10166966;9594207;6104;0;258
54596112;74844657;10132603;9558120;6043;0;260
54884809;75259878;10172643;9614040;5738;0;262
54457258;74807365;10167210;9638689;3784;0;264
55695475;76302478;10313938;9723293;5799;0;266
55840799;76539599;10347812;9770183;5982;0;268
57083899;78218122;10561191;9970093;5615;0;270
57394751;78708233;10651279;10064025;5798;0;272
57589269;78904034;10651095;10054556;6653;0;274
56633583;77861007;10607516;10072545;2198;0;276
58730075;80455849;10862033;10249378;7447;0;278
58580233;80258888;10831027;10227637;6592;0;280
58784274;80558083;10903537;10278105;6165;0;282
59612213;81645970;11014681;10392328;6348;0;284
60272550;82628695;11168062;10552250;5555;0;286
60650846;83095247;11213961;10585912;6592;0;288
60659634;83129059;11238924;10607211;6775;0;290
61261806;83960173;11349520;10711537;6653;0;292
61568324;84421537;11431307;10783626;7141;0;294
61299404;84116606;11405061;10785169;5188;0;296
62306420;85428981;11569611;10912310;7019;0;298
63220602;86638450;11706269;11053297;6591;0;300
63109031;86519798;11695526;11044867;7934;0;302
63725362;87339376;11810517;11152155;6103;0;304
63723652;87408589;11851716;11210606;4944;0;306
64814043;88789934;11977020;11310542;7141;0;308
65651199;89956374;12139984;11467455;7507;0;310
65345109;89514664;12066436;11407381;7080;0;312
66317091;90828015;12257720;11575406;7141;0;314
65652419;90068007;12202850;11572675;3357;0;316
67053173;91877329;12412017;11721520;7263;0;318
67315319;92195626;12432403;11743229;8606;0;320
67254527;92167977;12463103;11764064;6774;0;322
67808848;92890814;12551420;11840725;7995;0;324
67627756;92898322;12638579;11993255;3173;0;326
68833503;94313540;12736967;12027368;8179;0;328
69706304;95470153;12897672;12163020;8484;0;330
69543767;95266297;12858548;12152094;7324;0;332
69914616;95791137;12946989;12220643;7202;0;334
69113226;94956483;12897733;12268957;2442;0;336
71288330;97663080;13168729;12444460;6836;0;338
71565490;98060235;13257290;12509375;8179;0;340
72289854;99044119;13380581;12637988;8056;0;342
72130187;98834891;13353054;12613534;7202;0;344
71843566;98749808;13451443;12816368;1221;0;346
72886288;99859913;13469631;12732914;7446;0;348
73815729;101081650;13656337;12883096;6653;0;350
75137014;102940533;13863246;13115509;6836;0;352
74584343;102201643;13778651;13036571;7142;0;354
75597524;103548319;13965235;13209980;7935;0;356
74969534;102746014;13878566;13110150;7385;0;358
75479849;103452677;13977138;13217132;7446;0;360
76796068;105343053;14264429;13492163;6592;0;362
76060901;104253517;14091638;13308229;7264;0;364
77015916;105526097;14247522;13456931;7385;0;366
77208420;105772007;14302820;13490437;8361;0;368
77241501;105895786;14296655;13542080;6164;0;370
78017317;106887116;14431970;13623374;7507;0;372
78760540;107928862;14571068;13763212;7447;0;374
78774090;107910002;14562280;13753515;9949;0;376
79332012;108689846;14670678;13893099;6897;0;378
79537333;109054591;14761010;13945661;7934;0;380
80108376;109823571;14869958;14042761;8606;0;382
80891944;110899008;15002098;14158398;8057;0;384
81110633;111404134;15125999;14327997;5493;0;386
81494786;111770222;15136497;14304768;7507;0;388
81912632;112216693;15149009;14305807;7935;0;390
82573092;113141373;15269187;14420535;9033;0;392
81105322;111255208;15056235;14265919;4760;0;394
82771821;113466079;15347678;14490168;8850;0;396
84265653;115414682;15580588;14712930;7935;0;398
83676605;114674206;15501364;14628665;9583;0;400
83218659;114233839;15477194;14685376;4211;0;402
84540372;115858407;15657430;14781856;7568;0;404
85614161;117298772;15816488;14950977;7324;0;406
86333031;118313723;15996419;15118844;8851;0;408
84776822;116404182;15800924;14974433;4272;0;410
87126974;119464599;16132405;15267753;8789;0;412
86778464;118950685;16061727;15183285;8728;0;414
86540000;118609803;16036153;15148275;9643;0;416
85973474;118020938;15989278;15190263;3662;0;418
87834980;120368284;16234395;15365133;7690;0;420
89374344;122565421;16594501;15678168;8301;0;422
88590655;121396967;16390705;15488261;10193;0;424
87657491;120395078;16361958;15533459;3479;0;426
88958757;121948723;16500995;15582577;9339;0;428
90572705;124174365;16792194;15886085;7751;0;430
91975656;126065778;17032855;16108901;9521;0;432
89372635;122784720;16689411;15860809;2808;0;434
91406321;125262618;16911517;15980700;7812;0;436
91736093;125706099;16989581;16049410;9583;0;438
93415959;128096962;17349687;16385130;9094;0;440
91836618;126216718;17166948;16317315;2624;0;442
93488225;128162391;17306718;16372692;9460;0;444
93547490;128230568;17340409;16372849;10010;0;446
93377630;127970315;17307207;16330980;9461;0;448
91858774;126269697;17212907;16359782;2075;0;450
95807738;131270050;17714066;16753234;8301;0;452
95556884;130982026;17700761;16723562;10193;0;454
95424743;130757905;17648514;16681869;9766;0;456
93959537;129152745;17602677;16745892;1099;0;458
97317439;133398157;18031692;17038091;9034;0;460
97013179;132890834;17901749;16933059;8301;0;462
96834530;132652920;17886245;16917214;9399;0;464
97191341;133227503;18023391;17028873;8789;0;466
97806635;134073082;18097244;17126219;9460;0;468
99332204;136083880;18357985;17365953;9765;0;470
98716727;135313191;18271620;17291643;9338;0;472
100556566;137856214;18617629;17611264;10314;0;474
99627919;136499956;18415175;17416659;7629;0;476
100117480;137220229;18532240;17520227;9033;0;478
100990220;138448986;18711134;17688094;10254;0;480
100752488;138158155;18707960;17668813;8728;0;482
102181257;140033638;18892652;17872907;10071;0;484
101644271;139344553;18817823;17804785;9033;0;486
102317365;140260383;18915479;17918920;8178;0;488
103455424;141826846;19182202;18122818;9461;0;490
102459150;140492560;19035839;17975084;9948;0;492
103280071;141636661;19153637;18123729;8484;0;494
104466895;143270080;19395885;18332840;10864;0;496
104016702;142540040;19235729;18193566;9521;0;498
103849160;142411196;19255688;18228861;8239;0;500
106045139;145401300;19664806;18591601;10559;0;502
105522191;144660274;19535167;18486454;9705;0;504
107502228;147436329;19916270;18877862;7874;0;506
106563570;146150383;19783030;18704835;9339;0;508
107519989;147306019;19852977;18794066;10925;0;510
105896702;145250482;19677257;18613169;7813;0;512
108573331;148781114;20077890;18976216;9766;0;514
110228844;150944133;20350839;19230067;10010;0;516
107308014;147203541;19940379;18879395;7019;0;518
108929042;149303024;20184885;19071774;10010;0;520
109094630;149526472;20228952;19096120;9888;0;522
108213041;148387132;20039011;18997526;7935;0;524
110159447;151034281;20427804;19311708;10742;0;526
111508931;152856969;20663277;19521063;9400;0;528
109664331;150426067;20379891;19286792;7202;0;530
111935932;153478855;20738472;19615531;9338;0;532
111761494;153111119;20676400;19506239;11413;0;534
112311236;154091708;20837837;19772002;6164;0;536
112442583;154153536;20841499;19695286;9521;0;538
112678667;154507295;20912605;19773410;10682;0;540
112770707;154800263;20988533;19896866;6714;0;542
113366348;155355620;20968940;19825989;9888;0;544
114446363;156855494;21184517;20023845;11048;0;546
113453567;155698088;21062996;19991324;6470;0;548
115452097;158310386;21401556;20238848;9705;0;550
116426826;159557514;21545050;20372825;10925;0;552
113882216;156357571;21182991;20100605;5981;0;554
116090706;159146809;21507818;20348769;10132;0;556
117432316;160899185;21688482;20525182;10437;0;558
116658515;160226213;21747686;20630906;6104;0;560
117043646;160406328;21665289;20474589;10986;0;562
117984439;161765211;21892462;20689111;9521;0;564
117297368;161164931;21874150;20765725;6103;0;566
118216555;161996350;21871526;20671075;11474;0;568
120814571;165586429;22355717;21136609;11353;0;570
119586608;164191963;22248844;21111725;4883;0;572
123919788;169737420;22878176;21649760;12452;0;574
120898616;165736697;22368473;21181581;10681;0;576
119007386;163538522;22217839;21093943;5371;0;578
121064753;165900027;22391178;21161418;11353;0;580
122880423;168481686;22787906;21542661;10620;0;582
120557736;165619144;22458072;21357151;4700;0;584
123309071;169053400;22865786;21605261;11657;0;586
123130239;168817256;22827334;21585564;10376;0;588
121205134;166419069;22582279;21439657;4577;0;590
124814073;171006032;23069948;21807952;11474;0;592
124609483;170867787;23123171;21860137;11169;0;594
122535087;168275448;22812930;21685219;4639;0;596
125810103;172450303;23300904;22043595;11230;0;598
127077372;174242718;23568910;22286972;11231;0;600
124740281;171320118;23205690;22078023;4944;0;602
125884321;172542955;23286744;22050848;11170;0;604
127697732;175067179;23655702;22380246;12085;0;606
125158554;171960803;23358704;22206051;4517;0;608
127931801;175357644;23669495;22411003;10803;0;610
128041054;175562417;23738221;22445356;11475;0;612
126460125;173738446;23588563;22434060;4578;0;614
128809912;176581945;23856323;22557392;10620;0;616
129620579;177620639;23986877;22678599;12329;0;618
127752542;175476540;23835022;22664939;4395;0;620
129857273;177955171;23985534;22711031;11353;0;622
132692898;181748375;24475462;23170857;11536;0;624
129187169;177483310;24103576;22925584;3418;0;626
130977631;179541959;24287108;22947259;11780;0;628
135196004;185233900;25023129;23625082;12023;0;630
128779516;176946873;24034545;22880347;3113;0;632
134072044;183820575;24861448;23505480;11475;0;634
132658230;181826195;24577208;23235521;12085;0;636
133391565;183184895;24814328;23655209;4090;0;638
134555381;184388994;24904783;23533834;11719;0;640
134791220;184704300;24940549;23576153;12268;0;642
132853664;182524313;24806700;23585813;2807;0;644
135250996;185399428;25020077;23689537;12268;0;646
136446001;186902170;25233090;23833126;11963;0;648
132690762;182379233;24780210;23614632;3479;0;650
136618669;187252268;25285763;23919369;12329;0;652
137686964;188728033;25465511;24108488;13184;0;654
134683615;185035965;25130734;23953219;1892;0;656
138062086;189255253;25546322;24180317;12512;0;658
137701430;188644597;25459712;24058351;11108;0;660
135307088;185900525;25273800;24069172;2930;0;662
139762460;191590147;25905024;24487306;12085;0;664
138583202;189899111;25636226;24245252;11719;0;666
136317705;187294076;25431393;24239508;2319;0;668
141029058;193189386;26047174;24641388;12573;0;670
142536867;195307850;26310785;24926480;12452;0;672
139483774;191825803;26068537;24833543;2258;0;674
143306884;196477463;26533379;25122760;12024;0;676
143602781;196689011;26525322;25075797;13000;0;678
138410535;190222169;25918086;24690648;732;0;680
144983394;198664286;26784904;25380983;12939;0;682
148320360;200642614;26163386;24714384;12696;0;684
139581918;191897275;26116938;24907077;1038;0;686
143084351;196135118;26520928;25068009;12512;0;688
144245358;197727216;26761100;25290666;12451;0;690
142449525;195774645;26560174;25344233;1526;0;692
147386646;201948885;27258414;25771134;12207;0;694
145238092;198993204;26845695;25395398;12757;0;696
146451041;200712865;27103324;25628423;12573;0;698
147713489;202409455;27341361;25860178;12756;0;700
147386280;202009309;27314749;25835011;13793;0;702
146806631;201206333;27191214;25701099;12451;0;704
147738209;202527740;27400625;25917263;13733;0;706
146942800;201406162;27235587;25755565;12207;0;708
150467632;206236777;27894643;26366458;12939;0;710
150047467;205573448;27793447;26269677;12024;0;712
148749559;203867764;27563528;26048270;12878;0;714
150335858;206123252;27871206;26352055;12879;0;716
151452737;207623248;28044301;26548340;12146;0;718
150837382;206756917;27925160;26420946;13122;0;720
151853188;208049211;28098317;26570256;13245;0;722
149909650;205420982;27763784;26225797;11963;0;724
150649944;206487874;27972645;26413985;13428;0;726
151566567;207687274;28063832;26512619;10987;0;728
152587073;209096083;28244862;26718914;12817;0;730
153124852;209871044;28340504;26820298;13366;0;732
154555817;211887519;28685779;27119432;14160;0;734
156104642;214050844;28983996;27453223;10681;0;736
154663544;212002448;28629748;27095131;13672;0;738
155963346;213869265;28904161;27393485;11536;0;740
160173540;216955316;28429249;26856499;13611;0;742
155559111;213260623;28856799;27305397;12696;0;744
156190884;214181276;28997606;27414834;13062;0;746
155516997;213132878;28768969;27258651;11963;0;748
157063746;215218626;29037767;27473801;14649;0;750
157309961;215630918;29141161;27583169;11414;0;752
158478842;217104974;29264512;27706433;13062;0;754
158118309;216812434;29359116;27789275;12756;0;756
157431177;215775510;29176683;27584567;12756;0;758
159771747;218931507;29575364;27972875;12085;0;760
159579730;218680165;29528245;27943849;14160;0;762
160991959;220685653;29830185;28243069;11413;0;764
160021563;219312671;29647202;28042807;14526;0;766
159845599;219156360;29631149;28063554;11780;0;768
160076922;219444873;29687180;28063334;13061;0;770
160896133;220555893;29818527;28225585;11719;0;772
164513983;225363864;30401351;28767838;13672;0;774
166051943;225084324;29541368;27976418;10132;0;776
162469615;222671733;30095198;28461844;14588;0;778
164102058;225134251;30503218;28882081;11292;0;780
162201550;222334758;30127852;28446261;14343;0;782
167775998;227450834;29839767;28274114;11108;0;784
165377628;226514740;30551863;28913776;14831;0;786
162945994;223453286;30244246;28642718;10926;0;788
171152882;231924821;30404768;28745466;14038;0;790
166087588;227826931;30869672;29263078;11108;0;792
166855225;228641261;30904890;29208660;14770;0;794
167123351;228952660;30857587;29286818;12023;0;796
167118469;229088830;30920331;29285972;14465;0;798
166019594;227775784;30865277;29254488;10925;0;800
167966062;230100790;31047039;29346924;15992;0;802
167667845;229960410;31094342;29492634;10559;0;804
167314025;229194604;30915448;29246753;14404;0;806
174377422;236420110;31049481;29405354;11902;0;808
168625056;231159382;31312725;29580569;13916;0;810
168630489;231297138;31301068;29680448;10620;0;812
171816272;235503852;31799052;30103487;15259;0;814
172363084;236369329;31939188;30333169;11353;0;816
173406905;237594607;32059000;30348000;14832;0;818
177255344;240370478;31558635;29923169;10376;0;820
172323594;236292852;31984293;30256766;14282;0;822
171379444;235092721;31794657;30142468;10132;0;824
174906290;239497861;32273721;30531128;14709;0;826
173094650;237521731;32166056;30542140;9705;0;828
178914520;242445058;31783061;30038016;14770;0;830
172563096;236720585;32058023;30372038;10742;0;832
173456587;237765199;32174356;30409388;15259;0;834
173340560;237792177;32183695;30534730;10010;0;836
177150243;242904773;32880531;31093836;16541;0;838
173709638;238321350;32316385;30605988;9583;0;840
176064979;241308953;32653542;30846277;16602;0;842
176898840;242620961;32819069;31150395;10681;0;844
182827169;247848487;32478189;30738355;15503;0;846
178009188;244279282;33084266;31400002;10376;0;848
184336930;250029450;32909584;31088254;15930;0;850
175989844;241547477;32751442;31075368;10803;0;852
179630522;246175700;33267493;31454853;15503;0;854
182439901;247700415;32606301;30920650;10620;0;856
180516994;247287819;33376868;31563936;16052;0;858
176747289;242546681;32812538;31146438;9705;0;860
184247270;249888398;32826027;31034626;16174;0;862
178494722;244825179;33171607;31445147;9827;0;864
180078397;246753763;33321814;31506433;15381;0;866
181658958;249114597;33659643;31943138;9766;0;868
181739525;249019809;33604650;31798938;15075;0;870
180427089;247566993;33484228;31785864;10620;0;872
188336310;255428545;33536231;31729356;15137;0;874
185800977;252344203;33276892;31553608;10681;0;876
182911397;250518646;33748876;31945121;15930;0;878
183628375;251919338;34147617;32376342;10376;0;880
188205817;255359820;33588110;31766931;15136;0;882
188543402;256205704;33810460;32050984;11413;0;884
190089540;257883068;33916601;32074427;15075;0;886
186468578;255932389;34716097;32907511;10742;0;888
187103769;256499405;34708957;32815630;15441;0;890
186013623;255440447;34646273;32869337;11169;0;892
190592652;261028080;35136507;33279374;16235;0;894
187908821;257851024;34916658;33175489;9033;0;896
192148983;260793339;34371800;32466536;16662;0;898
187249276;256928724;34786349;33057331;9216;0;900
188650823;258612925;35016940;33099724;17273;0;902
185872937;255176837;34640963;32832836;8545;0;904
191745786;262626830;35431550;33525031;16968;0;906
187909798;257983287;34972201;33206165;10132;0;908
190115786;260517582;35171541;33289340;15564;0;910
193919425;263587704;34793735;33017547;9704;0;912
190756042;261349368;35303804;33377939;14954;0;914
189976015;260772037;35363252;33559647;9949;0;916
194164909;265923880;35859527;33934173;17151;0;918
189279483;259831793;35235933;33441191;9644;0;920
193514031;265110467;35786774;33843355;15747;0;922
195677356;266058706;35189241;33363507;9582;0;924
193888908;265694022;35902191;33950243;15930;0;926
194799429;267330066;36204620;34395755;9705;0;928
201094945;272960055;35991424;34009252;17456;0;930
197762067;268910262;35582917;33750400;9155;0;932
199418373;270705484;35682465;33710983;15259;0;934
197802900;269071882;35557710;33745271;9765;0;936
195299610;267719895;36171172;34234999;16479;0;938
198695475;270321879;35708099;33896794;8362;0;940
200931188;272863804;36031280;34037737;16602;0;942
200124244;271997290;35934845;34074323;9033;0;944
197925763;271282386;36652983;34677007;15930;0;946
195573901;268536788;36328642;34532131;10254;0;948
197973553;271217079;36617887;34612031;16419;0;950
199123331;273516390;37092190;35259364;8789;0;952
199822853;273847444;36944974;35000259;17273;0;954
199652870;274155792;37209744;35326402;7751;0;956
206125448;279901261;36929898;34903784;17334;0;958
199198282;273320223;36981900;35164156;7569;0;960
205588219;279269121;36890348;34861623;16235;0;962
199847816;274522185;37194851;35379713;8300;0;964
201490085;275948574;37238552;35200002;17944;0;966
199435646;273634859;37076627;35189995;7934;0;968
204448818;280244216;37874964;35853828;16235;0;970
201986177;277181664;37500392;35669588;8423;0;972
203208647;278521015;37613063;35636599;16907;0;974
200768957;275640957;37355129;35523788;8606;0;976
207529437;284304082;38423729;36328014;18432;0;978
201846346;277171409;37651331;35734219;6897;0;980
206422079;282943978;38267297;36203593;17944;0;982
207714373;282757821;37499782;35575347;7690;0;984
204355067;280065323;37856714;35808269;17395;0;986
203407865;279247332;37872217;35954537;8179;0;988
207229938;283993292;38402123;36299708;16480;0;990
208578384;283803717;37531703;35662549;9033;0;992
213197208;289725028;38300500;36199778;18249;0;994
204401515;280743788;38094995;36191339;7934;0;996
214901488;291853867;38447167;36388868;17639;0;998
210533275;286611815;37993006;36070476;8057;0;1000
215123411;292234176;38589745;36472300;18372;0;1002
208492203;286553527;38909690;36995150;8057;0;1004
213544864;289986013;38231714;36136188;17700;0;1006
208432877;286137634;38785484;36847496;7935;0;1008
213423771;292405196;39528280;37353215;17334;0;1010
208688247;286658751;38938316;36983728;8300;0;1012
215625059;292956037;38689354;36583858;16296;0;1014
208571854;286389464;38910728;36930342;7934;0;1016
213021855;291831529;39365011;37269383;18188;0;1018
211324532;290241017;39316672;37422952;7446;0;1020
221140975;300225184;39557211;37405931;17578;0;1022
217477654;296049352;39249838;37267651;7934;0;1024
