CORE;CPU;DRAM;DURATION;UNCORE;EXIT_CODE;INPUT
686705;960874;135619;123825;244;0;2
1311947;1633480;169555;144705;549;0;4
1867549;2317499;234801;205647;732;0;6
2450372;3016838;301635;266785;611;0;8
2984673;3687246;373229;330915;1159;0;10
3512564;4349232;434936;388313;1159;0;12
4176015;5148363;504332;453500;1281;0;14
4649402;5730576;558104;510385;915;0;16
5160021;6370589;624693;569085;1037;0;18
5849411;7212811;702940;636710;1343;0;20
6317062;7793254;760863;693615;1099;0;22
7006635;8625955;835691;763256;916;0;24
7591961;9358680;913267;828558;1648;0;26
8038371;9905859;958555;877308;1160;0;28
8689187;10691868;1035276;947720;1404;0;30
9302100;11457368;1106686;1010437;2197;0;32
9766028;12041717;1163083;1072148;1160;0;34
10508152;12957304;1233335;1140635;611;0;36
10859897;13374234;1286130;1186149;1526;0;38
8518655;11702668;1606746;1501392;1342;0;40
11212130;14141443;1486446;1373481;915;0;42
12481292;15382834;1483333;1374771;916;0;44
13170438;16196797;1553463;1431424;1526;0;46
13886500;17088274;1638973;1513161;1343;0;48
14284571;17581132;1682613;1552478;1648;0;50
14900535;18342116;1759945;1623027;2563;0;52
14502771;18239517;1899958;1760159;1587;0;54
12984952;17170428;2121699;1977327;1465;0;56
16529254;20341928;1954279;1802708;2076;0;58
16656391;20727730;2082209;1922968;2380;0;60
14505579;19171948;2364679;2201719;2442;0;62
18171828;22340214;2136835;1975313;2136;0;64
19285168;23714111;2252619;2090393;1709;0;66
17255632;22049016;2437494;2263255;2136;0;68
18302505;23284974;2540338;2354408;2258;0;70
20643502;25382686;2418817;2238920;2868;0;72
21032173;25888728;2477106;2291862;2808;0;74
17986892;23668763;2872369;2681737;2136;0;76
19289441;24899167;2842888;2646816;2563;0;78
21948796;27395560;2772149;2574066;2259;0;80
21950566;27663381;2900078;2695577;2441;0;82
21755803;27671133;2993034;2788312;2076;0;84
23766052;29616318;2974968;2767449;2502;0;86
22236454;28538929;3192741;2976378;2441;0;88
24619504;30554060;3020745;2811231;2014;0;90
23460328;30129867;3367668;3144478;2441;0;92
26833793;32999794;3142509;2916594;2808;0;94
27168327;33415930;3193656;2958302;3357;0;96
27700185;34077061;3248527;3013495;3357;0;98
28287830;34778781;3314872;3077501;2563;0;100
26893608;33917394;3566214;3323737;3602;0;102
26554376;33808934;3667654;3420330;2136;0;104
26988395;34394199;3758475;3498330;3113;0;106
26936821;34664218;3912038;3652217;2625;0;108
28501269;36232512;3925222;3657227;3479;0;110
30778608;38241907;3792837;3527474;2381;0;112
28264576;36390898;4110768;3842784;2808;0;114
31727153;39583090;3987234;3713121;2869;0;116
31306866;39521444;4163320;3880946;2991;0;118
29777024;38231287;4269276;4004090;2746;0;120
34428989;42356398;4036245;3750138;3113;0;122
35167573;43265575;4122426;3833176;3418;0;124
31958720;40912676;4530017;4229607;3540;0;126
32404886;41466386;4581409;4286639;3235;0;128
34509372;43361339;4492054;4183800;3235;0;130
33800695;43710520;5001391;4690379;2258;0;132
37606532;46272465;4412159;4097687;2747;0;134
38372765;47169984;4495350;4168698;3174;0;136
35161286;44855049;4914294;4592855;3296;0;138
36812833;46498966;4913561;4583675;3235;0;140
35295198;45338019;5068652;4741911;3235;0;142
38724571;48324827;4867114;4542548;2685;0;144
39518759;49421077;5025683;4686375;2868;0;146
38042078;48377562;5230394;4882629;3602;0;148
38353906;48743466;5268052;4918645;3845;0;150
42784192;52627490;5013048;4658273;3540;0;152
39681478;50408013;5431138;5076017;3723;0;154
44186777;54332197;5168139;4810523;3601;0;156
44678230;54931866;5215807;4850895;3601;0;158
45701116;56192361;5338488;4960680;4211;0;160
42490308;53886275;5769273;5397114;4334;0;162
45181037;56219583;5607713;5226474;3479;0;164
40622515;52498156;5972275;5635378;855;0;166
44085092;55798625;5923629;5542087;3662;0;168
48209471;59272004;5630356;5243275;4212;0;170
44635628;56505593;6009628;5616867;3723;0;172
49061276;60298308;5710679;5318090;3601;0;174
45625554;57926365;6219955;5814924;3723;0;176
42868176;55697184;6471480;6064286;4150;0;178
46577029;58873934;6231917;5823837;4089;0;180
51853932;63751790;6061203;5634224;3968;0;182
48057128;60694058;6394453;5985322;3967;0;184
48905026;61715724;6478499;6056668;4273;0;186
53351121;65609939;6221969;5806524;4211;0;188
49466915;62451806;6571639;6138409;4212;0;190
50559807;63652913;6631452;6192172;4150;0;192
54760785;67311657;6388472;5947203;4272;0;194
50024836;63799824;6950544;6514361;4150;0;196
49540401;63440328;7023541;6573806;3845;0;198
56746192;69742192;6605757;6155974;4273;0;200
57337622;70583254;6715071;6289091;2197;0;202
57115821;70543033;6813337;6352503;4394;0;204
52924425;67306346;7276348;6798959;4333;0;206
58348361;72269956;7077618;6593598;4028;0;208
53946273;68632270;7415631;6946668;4456;0;210
58108860;72307677;7199079;6720333;4212;0;212
56223672;70765017;7374127;6889299;3845;0;214
53297410;68651680;7743023;7253875;4028;0;216
60903286;74940604;7126873;6663296;2807;0;218
54116927;69737187;7879679;7392482;5310;0;220
63075950;77529831;7366131;6855633;3967;0;222
55703715;71741332;8092996;7590186;4822;0;224
63623434;78204206;7420757;6909685;4517;0;226
60777737;76325916;7870952;7363687;4455;0;228
60061980;75839284;7975444;7454923;4516;0;230
58916780;75503530;8365212;7845906;4516;0;232
59243684;75706959;8302469;7777503;3846;0;234
62386559;78293134;8079752;7538904;4639;0;236
68003488;83594879;7916788;7388277;4760;0;238
60192473;77180405;8578897;8049478;3662;0;240
61957605;78852825;8536660;7999134;4394;0;242
63437154;80112100;8426492;7892224;4212;0;244
62153528;79202129;8588235;8088087;2869;0;246
64594927;81454504;8525979;7980678;4944;0;248
63128257;80627113;8855385;8281901;4822;0;250
66950451;83966215;8624001;8051096;4273;0;252
71534607;88034504;8387612;7815484;4456;0;254
72598630;89228959;8448220;7881430;4638;0;256
65378678;83631317;9216163;8634539;5433;0;258
65391861;83625518;9156715;8646741;2441;0;260
70052067;87742512;8958900;8373506;4944;0;262
74748039;91883126;8715737;8124725;5432;0;264
67457041;86155236;9440284;8849570;5432;0;266
68059274;86879477;9506079;8905869;4822;0;268
68150033;86991537;9516760;8916215;4699;0;270
72111876;90293104;9223914;8622825;4455;0;272
77958418;95860228;9098365;8481889;4639;0;274
78455427;96470823;9153418;8538983;4883;0;276
72387449;91632272;9741247;9110735;5554;0;278
77406174;95679930;9257118;8643703;5127;0;280
71768859;91455637;9938757;9316660;6409;0;282
70700442;90828442;10144688;9533377;4029;0;284
70473269;90714185;10195042;9570324;4517;0;286
77083055;96376645;9760962;9138127;5737;0;288
74405327;94674990;10231419;9600120;5188;0;290
74486565;94786012;10254917;9604696;6226;0;292
83032929;102054731;9682165;9020637;5005;0;294
80770911;100472154;9944554;9351765;2868;0;296
83933928;103642863;10000829;9339767;5310;0;298
75012381;96166440;10688937;10017348;5981;0;300
79984719;100743578;10483493;9826679;5188;0;302
75723744;96961361;10719089;10046463;6103;0;304
84845303;105221349;10318455;9647057;6104;0;306
81848728;102309492;10345128;9726100;2197;0;308
78268110;99909535;10924471;10239098;5738;0;310
85905664;106687288;10514195;9843417;5188;0;312
84575773;105595555;10643894;9955061;6592;0;314
85715906;106981110;10749972;10060939;5615;0;316
86568565;107996427;10864352;10167996;5066;0;318
84857327;106910432;11149935;10440868;5616;0;320
81712560;104289040;11393769;10680890;5127;0;322
87192160;108786099;10956149;10234130;5127;0;324
86493370;108413236;11089876;10375370;5737;0;326
82813569;106103061;11729157;11018711;6408;0;328
85590784;108438992;11541230;10822715;6348;0;330
90736462;113152664;11316316;10617546;5738;0;332
86424156;109641076;11707429;10985128;6713;0;334
92274117;114858593;11429231;10704165;5005;0;336
83848784;107997343;12153472;11434883;5188;0;338
92182748;114945141;11529328;10781342;5798;0;340
87543416;111212911;11922028;11179646;6286;0;342
89606155;112940202;11785126;11049199;5249;0;344
97692011;120271177;11457490;10686500;5371;0;346
91613535;115541758;12066009;11345567;3906;0;348
97640986;120432431;11553681;10797007;6164;0;350
88481646;113201248;12473173;11698661;5859;0;352
99939991;122825553;11600923;10837507;5676;0;354
96063292;119692016;11977142;11198107;6531;0;356
88998552;114234387;12705900;11967620;4212;0;358
101969771;125377121;11878754;11089194;6470;0;360
94348696;119238525;12589628;11779543;6470;0;362
98936576;123208608;12306426;11501453;5798;0;364
99886402;124421312;12421049;11634061;6348;0;366
90960766;116702277;12958158;12205209;3906;0;368
96294188;121598566;12772368;11982231;7263;0;370
96270444;121597223;12805997;11989309;5554;0;372
103016948;128219032;12759183;11938528;5799;0;374
101514999;126393109;12580046;11781421;7019;0;376
93703068;120087949;13261685;12524818;2929;0;378
106902375;131388153;12414702;11602188;6714;0;380
96437131;123367299;13564235;12740140;7141;0;382
100391527;126524639;13221219;12372196;7202;0;384
108351102;133214442;12609770;11779128;6287;0;386
97218928;124380419;13655787;12884823;2075;0;388
110941183;136400712;12932889;12069879;6286;0;390
106787630;132887111;13216214;12367892;5677;0;392
107233063;133383447;13258999;12389562;6469;0;394
104530861;131744231;13777919;12903801;7385;0;396
99834278;127630044;13952479;13191271;916;0;398
101149949;129193883;14167566;13273670;7141;0;400
105463292;133007167;13879359;13032594;7141;0;402
109448755;136865128;13841151;12969266;6165;0;404
103827615;131848539;14137232;13263769;6531;0;406
104714575;133005397;14287134;13374082;6409;0;408
111751056;139037608;13810450;12915203;6836;0;410
116496467;143191344;13535976;12651734;6836;0;412
106869294;135500752;14422998;13557521;6713;0;414
115402354;142479006;13701381;12822176;6286;0;416
106633089;135844257;14745750;13828411;7446;0;418
116400825;143748472;13867701;12961566;7202;0;420
113328629;141814212;14372644;13485714;5249;0;422
115903023;143998777;14246546;13323811;6836;0;424
113980665;142937989;14657067;13713882;8178;0;426
115173655;143541686;14341760;13435278;6896;0;428
106035373;136240984;15203574;14308859;5554;0;430
121260310;149559615;14320642;13407842;6592;0;432
109942041;139952401;15143943;14201544;8179;0;434
118983948;147882556;14650964;13702042;7446;0;436
118543886;147343617;14568444;13674151;5371;0;438
110273216;141373173;15683310;14724291;6653;0;440
116823797;147380055;15414206;14466807;7751;0;442
117670963;147990832;15328940;14356936;7752;0;444
122072869;151609414;14905846;14022019;4456;0;446
118377688;149392623;15622884;14671441;7691;0;448
123551441;153633640;15229880;14245633;7446;0;450
113341629;144817501;15877034;14892035;8423;0;452
123758900;153726291;15146323;14232516;3845;0;454
117252263;149004135;15990316;15032933;8240;0;456
128908911;158443137;14979698;13989831;6897;0;458
121517451;152589880;15724264;14721782;7141;0;460
128538184;162686900;17399431;16206332;3906;0;462
130231661;160072772;15120262;14139388;7507;0;464
124745103;156473111;16032002;15022570;7141;0;466
119908628;152176308;16294270;15274392;8423;0;468
131079986;161189284;15253074;14302341;4212;0;470
126459210;158683005;16274311;15268666;7446;0;472
121932671;154911102;16627338;15601709;8362;0;474
125849226;157660180;16083761;15060287;8178;0;476
121379267;154095614;16447346;15524888;3540;0;478
126419415;158851583;16416218;15359871;7873;0;480
123853321;156762477;16629596;15588776;7263;0;482
135922931;167032104;15781942;14740808;7996;0;484
120832943;155032989;17162614;16218356;3784;0;486
128268898;160930313;16510517;15485165;8850;0;488
130253694;163564156;16827776;15774379;8240;0;490
127912392;161840650;17120073;16064684;8057;0;492
137835097;169536309;16063862;15086518;3052;0;494
129205907;163519357;17319231;16242571;8545;0;496
140006111;172179796;16287251;15237793;9094;0;498
137022110;170008842;16692279;15632359;7447;0;500
124922898;160001056;17647782;16669392;3174;0;502
133891381;167833616;17161149;16083672;8057;0;504
140040474;173694745;17046526;15944543;8301;0;506
138260144;171538990;16866229;15775200;8972;0;508
128688208;164636907;18039871;17073324;2808;0;510
137875380;172696518;17552506;16483462;8667;0;512
131973233;167060852;17734634;16619535;9155;0;514
136963211;171601917;17500505;16396466;7752;0;516
130430452;166001345;17852860;16894429;1526;0;518
146676993;181153528;17465715;16331082;8118;0;520
147692310;181564599;17206926;16069621;9155;0;522
144948299;179715299;17609024;16477179;8422;0;524
135326131;171240346;18060745;17070456;1892;0;526
143164184;177515658;17417863;16271988;8728;0;528
145989495;181052637;17721146;16624184;9277;0;530
148247607;184763382;18408461;17266117;9277;0;532
131382903;168536862;18664136;17652020;1404;0;534
142942323;179026031;18254104;17085738;8057;0;536
147264638;182482871;17855850;16683372;8667;0;538
139188914;175922829;18526869;17392168;7874;0;540
144135069;180425137;18356216;17187366;8667;0;542
144922175;181337732;18434340;17255300;8118;0;544
141479008;178714996;18760512;17631266;8240;0;546
157931847;194034965;18255690;17111165;8606;0;548
151282022;187563668;18371657;17191253;8667;0;550
147730640;184811355;18710279;17560971;8423;0;552
151161417;187365121;18363173;17159686;9216;0;554
140819830;179315886;19435620;18208735;8789;0;556
145387629;183688860;19297558;18148157;7385;0;558
157331811;193360467;18297560;17086364;7996;0;560
151413125;189241459;19147473;17919777;9644;0;562
148924424;187885810;19618785;18458795;8056;0;564
147302052;185717665;19395824;18192020;8667;0;566
158579611;195079090;18521132;17311075;8789;0;568
151893104;189923281;19208447;18014340;8057;0;570
147434010;187608529;20243540;19027449;9827;0;572
153089208;191370543;19328869;18133637;8911;0;574
151986122;191711789;20039866;18827249;8484;0;576
162822520;200106788;18886732;17675572;8850;0;578
150545513;189833437;19834483;18607962;9583;0;580
152389564;192186581;20073129;18871717;8362;0;582
157437341;196778427;19904674;18638613;9522;0;584
152296302;191962339;20005870;18784474;8667;0;586
156537685;196351975;20090586;18856765;7141;0;588
156497952;196461289;20173898;18914611;9949;0;590
160007219;199907875;20154978;18891681;9400;0;592
155239349;195662036;20384714;19158246;7141;0;594
162910350;202325593;19962107;18671483;9277;0;596
157394312;197877118;20479745;19178518;9033;0;598
156495266;197251632;20573555;19321043;6775;0;600
168827449;207524737;19665782;18353794;10437;0;602
167191344;207154255;20260507;18956733;9827;0;604
163472604;204093228;20491036;19271362;6531;0;606
169056940;209396132;20404366;19102897;10864;0;608
169616692;213198307;22356083;20605024;11413;0;610
165845340;206007285;20350167;19056344;5982;0;612
162186047;203594999;20948982;19600685;8911;0;614
170235892;210827036;20497323;19224045;9888;0;616
158199364;201007237;21565802;20308748;6775;0;618
162813426;204806604;21247077;19879335;11108;0;620
174562053;214640137;20343943;18990417;9399;0;622
160017901;203228544;21772161;20483488;6470;0;624
167132019;208604752;21011421;19657501;9216;0;626
176353186;216960993;20537912;19232997;10253;0;628
156336392;199981727;21938970;20697585;7019;0;630
168596065;211599434;21722051;20365937;9094;0;632
165425113;208586136;21784673;20429353;10009;0;634
177913851;218636708;20605599;19333676;6408;0;636
170867239;213248295;21422370;20081551;10437;0;638
165790408;210802988;22681278;21310138;9827;0;640
165234135;209080154;22107182;20794731;5066;0;642
174151654;217350396;21877507;20467585;11597;0;644
175107096;218491445;21944158;20560628;9521;0;646
166017519;210328502;22323002;21033363;5982;0;648
169677361;213568545;22178105;20781831;10193;0;650
183313130;225331820;21299995;19912298;11109;0;652
167620177;212479254;22607853;21292076;5981;0;654
176269995;219905565;22104497;20670120;9583;0;656
169287104;214531372;22837954;21450382;10803;0;658
176837010;220622116;22069645;20771300;5493;0;660
170722158;216310420;23025759;21588398;10559;0;662
189875735;233299207;21987310;20597381;10376;0;664
180904749;225746676;22605838;21297193;4944;0;666
167460448;213869142;23412477;21965977;10071;0;668
184366166;228224270;22203251;20790971;11047;0;670
181340356;227705716;23304444;22012028;4883;0;672
176574255;223488075;23683655;22214255;10253;0;674
183523517;228788843;22854739;21431990;10559;0;676
181242395;226611541;22886721;21544791;4883;0;678
174070721;221501264;23921265;22449923;11658;0;680
184885879;230406881;23031008;21566684;9949;0;682
182324057;227661343;22905520;21530354;4516;0;684
181658592;227797818;23302735;21855666;9460;0;686
181236658;227746609;23493959;22011983;11353;0;688
176907140;223740882;23610719;22252462;3906;0;690
173879804;221758283;24153319;22676053;10315;0;692
192069759;237735537;23147157;21650138;11169;0;694
170370230;219183215;24550475;23171398;4944;0;696
186358043;233916088;24016296;22525751;10192;0;698
185879040;233289686;23987610;22459071;11291;0;700
178062410;227068022;24628293;23265229;4334;0;702
184564469;232710952;24322386;22814272;11658;0;704
189320804;237819521;24466491;22970125;10254;0;706
181532921;229588341;24177551;22810296;3601;0;708
187285348;234957773;24105712;22569730;10804;0;710
181881980;231550555;25025509;23514912;11413;0;712
191322691;238406556;23724060;22365359;4212;0;714
185956800;234975656;24744566;23208325;11841;0;716
197561323;245957561;24458494;22935017;10804;0;718
179490996;230372091;25527217;24165344;3296;0;720
197306746;245682843;24509093;22944578;11841;0;722
182227316;233551832;25838984;24314220;11535;0;724
181922447;231260028;24842893;23430262;3540;0;726
204078579;251330716;23900207;22378926;10010;0;728
185670057;236285284;25518733;23958147;12757;0;730
187904060;237545962;24999142;23590007;3418;0;732
195701892;245334882;25075009;23521170;10803;0;734
194007560;243674181;25125790;23510104;11292;0;736
194321219;243345446;24712705;23299622;2991;0;738
188217413;239546079;25854670;24289236;12329;0;740
187833320;239167174;25850581;24289945;12085;0;742
184411393;235955512;25874689;24491745;2625;0;744
207178302;256954115;25186153;23587386;11719;0;746
185179335;238112488;26610833;25036811;10498;0;748
189670413;241351067;25931330;24554313;2137;0;750
203114165;252821741;25118283;23548988;10559;0;752
203666226;255760698;26246210;24642942;12268;0;754
198286541;249627779;25808467;24382723;3174;0;756
199378212;251356839;26242242;24618220;11475;0;758
202335847;253866050;26049860;24391910;11658;0;760
196179979;247312050;25736202;24332997;2259;0;762
196452622;249492220;26764091;25117738;12451;0;764
193281914;246661355;26895317;25271234;11780;0;766
205286767;255723894;25441158;23992263;733;0;768
201240635;254828755;26978447;25351992;11292;0;770
197647932;250357269;26584100;24964661;11780;0;772
196515366;251238126;27442496;25998630;1587;0;774
202426240;255198566;26681816;24997113;11902;0;776
202073824;254776447;26633538;24952287;10925;0;778
195641650;250160493;27410208;25913466;1831;0;780
204507899;257794323;26899712;25246461;13244;0;782
215719052;268366074;26642022;24948545;12024;0;784
198633769;254237020;27937795;26424253;1892;0;786
203410429;257553173;27343130;25618839;12329;0;788
203592985;258267223;27599355;25887569;11658;0;790
217180718;270012614;26755852;25031159;11841;0;792
202506440;258568613;28279102;26545539;12146;0;794
205992331;261394716;27955800;26225182;12146;0;796
206274009;261389773;27763174;26096956;11658;0;798
205346642;260380742;27714407;26047718;12878;0;800
220242723;273813569;27109855;25387379;12634;0;802
214393189;269830914;27982655;26258961;12207;0;804
211321725;266161794;27701101;25988153;11474;0;806
215772763;269970196;27432425;25676649;12513;0;808
205799888;262546996;28606372;26873923;11047;0;810
224117346;279264788;27909596;26097355;12756;0;812
206334005;262339050;28294117;26504221;11780;0;814
212837834;269591168;28639331;26881563;13123;0;816
213401858;269555768;28347950;26586768;11230;0;818
221852338;276585229;27658376;25922306;12635;0;820
216598078;272173375;28100148;26322441;12756;0;822
215695432;271963782;28383655;26620291;12817;0;824
217289666;274477508;28830248;27073061;12207;0;826
216137997;272698032;28517810;26770356;11902;0;828
227165983;282610483;28035084;26267477;12146;0;830
216945429;274419647;29009081;27208003;12817;0;832
222333354;278124898;28154225;26421838;11841;0;834
222710428;278542499;28277882;26453831;12451;0;836
215983516;273471285;28972949;27223816;11719;0;838
218784962;276971337;29348130;27558855;13305;0;840
227521756;282892098;28041921;26256384;11291;0;842
226470002;283193794;28693774;26872312;11902;0;844
223062906;280506118;29037829;27230600;11292;0;846
214702209;273670748;29758285;27914851;13489;0;848
218514272;276639123;29323045;27557579;11109;0;850
226082978;284325627;29463731;27590771;12756;0;852
224038489;283365546;29892990;28101903;12024;0;854
231678423;287937679;28462939;26648913;11962;0;856
223565285;282870308;29926254;28111804;11169;0;858
237457522;293378338;28335010;26497764;13672;0;860
219470202;279498735;30263778;28433988;11109;0;862
225103183;283908758;29700425;27852422;14343;0;864
224005835;282567514;29567429;27769386;11047;0;866
235979437;293263959;29001086;27136494;12879;0;868
221203230;281534009;30420516;28598442;12207;0;870
224459508;284730167;30382368;28549692;14038;0;872
242482472;301763815;29952193;28093751;10131;0;874
225120151;284810062;30120467;28292336;13366;0;876
225870638;285622010;30126937;28323561;12330;0;878
241181634;299596523;29570787;27676418;13000;0;880
224280492;285445802;30843915;28988078;11535;0;882
241087762;299547878;29545579;27706610;13184;0;884
224414587;285551393;30828657;28996635;10559;0;886
235796943;296614476;30673261;28816200;12756;0;888
237826357;296787083;29838669;27972120;10131;0;890
228689661;290774219;31318035;29395807;13733;0;892
253192223;313201713;30356734;28479640;11902;0;894
242694080;304012344;30975506;29021737;14282;0;896
244187790;305326855;30894208;29012044;10193;0;898
231410662;294091654;31601237;29683579;13733;0;900
231417132;294025371;31506694;29661057;9888;0;902
250444183;309551576;29975326;28029124;12757;0;904
237118167;297830048;30647749;28790083;12329;0;906
244214402;304878065;30687788;28718541;13306;0;908
246593180;307853460;30977521;29072460;10559;0;910
241355705;303167986;31186139;29279437;14038;0;912
232326432;295224159;31675151;29812042;10925;0;914
245106428;307294807;31391155;29448553;13977;0;916
252551294;312471978;30350142;28432622;10742;0;918
248670628;312031733;32019389;30014844;14404;0;920
238367859;301135582;31677592;29770924;9216;0;922
248899571;310629209;31246319;29241264;14893;0;924
249367404;311309567;31328411;29400746;10071;0;926
238916259;303350541;32536172;30517704;13367;0;928
237889955;301614645;32143106;30215745;10315;0;930
244997359;307894598;31800394;29787132;13489;0;932
253263206;315048876;31217755;29288744;10925;0;934
252765283;315111621;31551372;29523499;14160;0;936
242968006;309598756;33500830;31589725;9583;0;938
243127124;306990242;32227640;30227318;13672;0;940
253860618;316577131;31678813;29737396;10559;0;942
244220200;308196172;32353616;30320926;14709;0;944
258651925;321068270;31553814;29645711;9461;0;946
240147517;305812572;33077979;31090691;15015;0;948
259824225;322997891;31892070;29959936;9216;0;950
252306483;316552535;32492470;30447661;15747;0;952
243845811;309378481;33045448;31087819;9338;0;954
251039945;316756330;33176184;31119850;15198;0;956
250281098;315526597;32920204;30936163;9583;0;958
256497451;319956883;32069254;30045499;13672;0;960
250020295;315854965;33161720;31188118;10620;0;962
251372159;316534224;32945533;30861902;13794;0;964
262601439;327527116;32728859;30806860;11108;0;966
252250392;318141763;33279944;31226194;13611;0;968
264401423;328136794;32187478;30215402;9521;0;970
254638264;321020540;33537512;31439612;13977;0;972
264415461;329599315;32893348;30949013;10559;0;974
249647615;316615278;33825474;31714732;14038;0;976
262389770;327178117;32796608;30763050;9522;0;978
260311895;326367756;33392553;31306398;15015;0;980
263991206;329361279;33058571;31029043;10010;0;982
254644246;322183440;34093540;31979302;14221;0;984
262909483;328386854;33136878;31076992;10254;0;986
267528551;333530518;33371557;31261030;16113;0;988
267536791;333670959;33358497;31370941;9155;0;990
260467046;328114028;34193638;32041060;13733;0;992
260348638;328046157;34150548;32108810;10132;0;994
271782629;337159416;33099403;30988684;14099;0;996
263692135;330600350;33826879;31760692;11292;0;998
257246533;325848653;34581638;32467658;15869;0;1000
272328465;338336902;33376379;31325237;8789;0;1002
267025866;334102477;33933141;31755070;15686;0;1004
266887317;334435118;34170627;32079826;9216;0;1006
265916067;334844968;34767551;32640606;15808;0;1008
268259140;336234003;34341465;32288363;8789;0;1010
267235033;336436639;34931308;32779542;14404;0;1012
263302670;332846804;35029757;32982405;9766;0;1014
267327624;335520076;34438816;32308704;14954;0;1016
264315181;333476380;34847262;32835142;9949;0;1018
274006867;342677956;34714632;32530504;14954;0;1020
256994154;327105425;35294831;33270289;8606;0;1022
274150421;343451269;35005586;32815734;15686;0;1024
