CORE;CPU;DRAM;DURATION;UNCORE;EXIT_CODE;INPUT
3916616;4693714;394836;372042;305;0;2
8491616;9780554;684385;646484;915;0;4
9692603;12088043;1254758;1203879;1282;0;6
14455895;17992263;1842037;1777502;1465;0;8
18404067;22892581;2349969;2272413;1892;0;10
20328928;25249264;2574823;2492197;1709;0;12
23417909;29055101;2969353;2870802;2197;0;14
27234549;33741674;3427604;3320034;2441;0;16
32407448;40253437;4103688;3987343;2137;0;18
28848498;35793426;3620536;3507791;2319;0;20
46641727;57842199;5867416;5711839;2869;0;22
49441707;61282009;6184738;6017347;3174;0;24
48878171;60628262;6158553;5994002;2869;0;26
54757855;67847971;6867964;6682923;3357;0;28
55369365;68696785;6984480;6789435;2624;0;30
57291662;71064332;7209516;7011624;3418;0;32
62606957;77595565;7854472;7645783;2991;0;34
69527959;86278588;8765237;8539850;3296;0;36
71809569;89236038;9065101;8884292;1343;0;38
72705807;90131239;9094642;8857394;4029;0;40
81268835;100695665;10194981;9926051;4272;0;42
82820955;102668195;10376133;10092938;4333;0;44
88687212;109924401;11162203;10868684;4395;0;46
89191422;110587424;11199435;10911863;4151;0;48
97550776;120968013;12242827;11942358;4883;0;50
102025374;126538556;12843534;12511236;4883;0;52
161237014;199968910;20188608;19694553;7202;0;54
106039341;131506072;13335598;13041712;3357;0;56
111580464;138312207;13998194;13646728;5798;0;58
116323189;144154111;14586327;14208391;7385;0;60
117843387;146085259;14781823;14417048;7507;0;62
134560325;166432618;16841022;16476915;3296;0;64
128834692;159551715;16113362;15705310;6775;0;66
333848755;412865276;41826248;40880354;12268;0;68
151032817;186929331;18896558;18424507;7568;0;70
145343439;180080594;18194900;17733888;8240;0;72
144705196;179334014;18142471;17705939;7264;0;74
146098564;181041040;18329787;17868387;7385;0;76
155766630;193020319;19523693;19034392;7691;0;78
191422240;237359927;24017395;23500940;6775;0;80
171638843;212454229;21514594;20986294;8362;0;82
206568380;255459613;25770015;25163097;11353;0;84
209565382;259946783;26381768;25908216;3235;0;86
184105120;228021511;22958437;22386201;10681;0;88
178010957;220699814;22366459;21807558;12513;0;90
187611275;232924026;23612367;23182375;4028;0;92
185429518;229846031;23233217;22663862;10986;0;94
204569483;253570884;25751826;25007297;11230;0;96
193526421;239852902;24287841;23863738;3235;0;98
229489768;284707951;28738818;28126789;13183;0;100
213942079;265151970;26757500;26150853;10498;0;102
208918166;258920114;26142145;25511986;11719;0;104
221586591;274852873;27826467;27089345;11841;0;106
208966018;258940560;26182551;25537204;11719;0;108
246917336;306014109;30840498;30180883;12024;0;110
220139817;272534092;27504385;26816609;11658;0;112
225073947;278761432;28033010;27372732;12268;0;114
236742497;293332928;29642808;28923722;13184;0;116
235726875;292281234;29571458;28908087;11291;0;118
251514065;311844539;31532634;30819361;15259;0;120
253757773;314739733;31867045;31204942;9766;0;122
253827170;314656116;31813090;31065960;14160;0;124
251930996;312158991;31467022;30802927;9887;0;126
269710125;333891358;33654027;32863396;14710;0;128
261702699;324500635;32812538;32124919;9277;0;130
271531775;336592827;34063328;33237175;14831;0;132
269569012;334334533;33808202;33123977;9094;0;134
277133934;343446570;34720736;33886558;15625;0;136
287573299;356490298;36113128;35424604;8545;0;138
271305031;336071161;33973485;33135717;16724;0;140
287515439;356734072;36140166;35418382;8179;0;142
291397691;360570915;36327177;35430451;15686;0;144
297095492;368422763;37263821;36519984;9643;0;146
299363003;370983975;37476527;36591810;16846;0;148
314754444;390606422;39517233;38803609;7446;0;150
332014531;410976121;41417008;40444786;18921;0;152
309654542;383840326;38850791;38149104;5371;0;154
325442160;403177008;40524737;39605300;18493;0;156
334967832;415390721;41986465;41217594;6408;0;158
378124703;469186482;47427857;46443460;21545;0;160
342950721;425823495;43135754;42404043;3784;0;162
363554733;450520576;45445502;44374279;19897;0;164
346325468;429595885;43485301;42732173;4700;0;166
371127712;459709761;46448123;45334702;19776;0;168
355143317;440338350;44573799;43796587;4822;0;170
405965147;502660579;50682487;49478999;22644;0;172
395937340;490504054;49669917;48813785;2136;0;174
886275991;1097173949;110982748;108833335;24048;0;176
170950857;211531502;21355536;20792630;9766;0;178
445534748;552092459;55798625;54712436;14771;0;180
391492040;485165201;49080685;47924301;21668;0;182
300035425;371954432;37750148;37085071;3235;0;184
455092646;563070885;56780738;55437344;23499;0;186
532120220;659224997;66698255;65252391;23682;0;188
362958482;449401072;45424200;44315755;20020;0;190
483643294;599489188;60738431;59759216;4883;0;192
533394631;660876238;66904675;65478290;23742;0;194
531829388;658453515;66428297;64999463;23987;0;196
497020639;615844005;62369042;61046901;23316;0;198
442462795;548161011;55493205;54210658;23804;0;200
465528105;576339772;58214207;56883752;23986;0;202
549173582;680268095;68732612;67258051;23315;0;204
551621330;683398642;68963996;67575581;23193;0;206
440176120;545248544;55096478;53852848;24048;0;208
439131750;543721875;55027447;53746815;23681;0;210
402447884;498767705;50375481;49198293;23498;0;212
403713933;500318482;50566033;49736844;3051;0;214
689340093;853185743;86019128;84267399;25391;0;216
347785242;430796077;43483471;42482927;20264;0;218
417509002;517986711;52308398;51448916;6836;0;220
385001822;476921386;48225829;47082619;21606;0;222
372886130;462769018;46926638;46102611;4089;0;224
440313936;544872262;55020001;53729034;24230;0;226
864647689;1071400272;108409268;106322385;25513;0;228
321771881;398233051;40209187;39217028;18616;0;230
339693589;421193258;42625684;41917882;6653;0;232
297637239;368584811;37306362;36416577;17212;0;234
161171402;199643776;20226999;19761752;7507;0;236
304926404;377606089;38203943;37278577;18372;0;238
280475966;347574245;35191194;34520275;8545;0;240
215320616;266859058;27050651;26362822;13184;0;242
325260703;403173651;40797991;39965802;12085;0;244
315890976;391089819;39570578;38613994;18982;0;246
279050189;345613373;34975191;34299816;7324;0;248
339063341;420115197;42550611;41538650;20446;0;250
364515058;451484867;45761296;44932600;6592;0;252
318414957;394477811;39930562;38978080;18128;0;254
382481321;474162421;48093200;47216780;8057;0;256
153402379;190077150;19278271;18765920;10682;0;258
976241764;1220938830;127013591;124927906;17090;137;260
340943219;423634963;43256053;42166522;19531;0;262
382597653;474364203;48053954;47213874;5920;0;264
480989857;595364931;60153288;58756166;25085;0;266
1052064933;1334066471;143383788;141000102;25513;137;268
298323638;369169526;37127286;36198489;16235;0;270
238047181;295211280;29863327;29249769;9522;0;272
243276172;301287742;30464766;29699047;15625;0;274
338030812;418927028;42418653;41545743;11169;0;276
200405737;248253209;25180356;24538718;12329;0;278
252868737;313121696;31755717;30992281;13855;0;280
261162112;324765160;33017737;32352416;17334;0;282
198356548;245782696;24947934;24351027;10254;0;284
1094046089;1398154197;153423679;150589909;26550;137;286
292065231;362646533;36691191;35777906;17456;0;288
1014854335;1278961569;135146565;133038176;11047;137;290
1060465364;1346044284;144697139;142248464;26123;137;292
1042655106;1319298197;140736579;138337286;24719;137;294
202847503;252706384;25981562;25316068;13061;0;296
295534949;366077860;37031765;36176584;13855;0;298
277939657;344174289;34833041;33967651;17334;0;300
174051312;215604001;21876409;21325064;8911;0;302
185666395;230228171;23383058;22786771;11780;0;304
247144631;306193613;31050579;30284856;14221;0;306
268135483;332164432;33517370;32693569;15808;0;308
159497272;197546003;20113779;19565256;10071;0;310
959962936;1197948715;124130236;121921798;25452;137;312
864627731;1070880071;108625088;106477189;25330;0;314
681290432;842331096;85177333;83368584;24353;0;316
987668126;1235453868;128668677;126499032;26672;137;318
978196531;1225278358;128106422;125795823;25940;137;320
449967110;557430214;56641090;55272489;25390;0;322
1034720678;1310447695;141040288;138541420;26245;137;324
985220195;1235306835;129277806;127146311;24536;137;326
983382859;1230314477;128022865;125849015;27222;137;328
971930068;1215549927;126515362;124291341;26122;137;330
980718131;1225758092;127369119;125125803;24598;137;332
963479223;1199599162;123354421;121136900;24658;137;334
324753014;404418093;41707047;40699814;19653;0;336
580484476;718853079;72877072;71637510;7080;0;338
1124395132;1446848653;161295364;158657617;26611;137;340
428234927;531212751;54076949;52805248;23743;0;342
1065141560;1354265210;146841665;144467633;25330;137;344
1118344061;1427281014;155751189;152920007;26062;137;346
1019597853;1278154137;133535730;131269232;26368;137;348
1090857620;1390983317;151967202;149146059;26306;137;350
965305451;1207354026;125837751;123594537;23560;137;352
881936890;1092658397;110951742;108765881;25451;0;354
999716130;1254653526;131553435;129333083;26794;137;356
964314853;1202776401;124351488;122112905;26001;137;358
1027229853;1299098359;139029124;136498199;26245;137;360
810548462;1005768299;102570660;100500011;24353;0;362
966410550;1203545869;123711049;121662036;25573;137;364
981866444;1232196370;129283239;127119281;25452;137;366
990289885;1241723933;129724033;127381043;28564;137;368
250672637;311646236;31913004;31092814;13245;0;370
212257575;263338621;26797722;26144425;10926;0;372
255165301;315905137;31957010;31129014;16846;0;374
239495541;296944003;30246260;29540874;11841;0;376
171004079;212093024;21560247;20974051;10681;0;378
189480960;234772776;23841492;23208840;12757;0;380
212761479;263869563;26843681;26279317;5188;0;382
223922340;277170433;28100636;27366604;13123;0;384
194049185;240551447;24474608;23804701;13733;0;386
208169450;257756481;26093500;25425087;14343;0;388
195908739;242746754;24698240;24029842;11841;0;390
202885589;251754421;25656795;25157338;1709;0;392
155302276;192595271;19622936;19080512;9461;0;394
245211347;303707901;30858197;30048000;15991;0;396
175395669;217639091;22173039;21725409;2869;0;398
220522018;273159029;27677664;26963092;14832;0;400
204517177;253250084;25731623;25048132;13428;0;402
246303507;305061963;30990399;30183130;15686;0;404
173319930;214987853;21910039;21311413;10254;0;406
182125266;225838045;22947268;22334973;11657;0;408
188829533;234042309;23787903;23131129;13794;0;410
238073121;295173256;30017318;29429174;4334;0;412
213804506;265053215;26968375;26246477;15076;0;414
234049999;289732046;29383836;28637680;12574;0;416
237451602;294004496;29832016;29069460;15808;0;418
218616140;270901528;27492728;26803680;11230;0;420
190169008;235754096;23953308;23311799;12573;0;422
221845014;274748503;27950489;27200104;15686;0;424
153762729;190580872;19454357;18906618;9399;0;426
211794685;262531859;26585320;25883877;15991;0;428
213253116;264428583;26934136;26367127;4212;0;430
202404816;250713531;25492977;24811623;12635;0;432
224937840;278683124;28348194;27606832;13672;0;434
226511444;280446121;28473377;27721528;14710;0;436
225211154;278997211;28360462;27649551;12573;0;438
208184465;257559155;26119013;25404135;11719;0;440
231378558;286663023;29166002;28408387;15198;0;442
196068041;242864002;24718992;24041661;11780;0;444
206892476;256263871;26062860;25347333;14649;0;446
160779374;199678993;20378549;19973017;1892;0;448
193409051;239742489;24375975;23725753;11841;0;450
248092322;307675787;31198955;30527435;14954;0;452
261338076;323652187;32837929;31982145;16846;0;454
205665062;254884968;25939020;25283140;10315;0;456
209202772;259235542;26403436;25693438;12634;0;458
203814725;252435206;25668636;24965526;14648;0;460
236623112;292894941;29730087;28931999;15564;0;462
212183478;263248654;26807487;26174672;11718;0;464
209351942;259397347;26414911;25698662;13001;0;466
237089908;293622417;29779526;29066666;13550;0;468
201373752;249720979;25440242;24724113;13183;0;470
219678210;271993628;27619924;26889179;15015;0;472
175508095;217262200;22069768;21428039;11780;0;474
188993717;234135997;23846131;23177584;12756;0;476
235093941;291183947;29619309;28993296;4944;0;478
197908002;245059615;24926877;24230355;13244;0;480
221811749;274791777;27971119;27215851;13793;0;482
224965061;278616536;28252003;27507069;15014;0;484
214225159;265354362;27015861;26303780;12024;0;486
209881360;259878058;26437554;25715861;14954;0;488
200409155;248211583;25185727;24502385;12268;0;490
183219746;227245329;23164919;22694015;2319;0;492
194547292;241263665;24607603;23931875;12146;0;494
190380921;235933600;24000183;23340406;12879;0;496
190969848;236554082;24064025;23547074;5005;0;498
230259664;285177798;29000963;28229479;13184;0;500
199195107;246490763;25015378;24322187;12330;0;502
149804487;185717359;18981214;18425578;9522;0;504
198515422;245982463;25059323;24370184;13672;0;506
220442185;273027805;27769705;27169592;5676;0;508
209115553;258943551;26335870;25612715;13001;0;510
206589865;255854203;26024347;25310081;14710;0;512
193520806;239793331;24345091;23671248;13061;0;514
205159082;254085287;25842707;25124685;15137;0;516
212284674;263132932;26819267;26265873;2441;0;518
231526690;286829527;29222520;28432727;14282;0;520
176224647;218129874;22177434;21527512;11840;0;522
203495268;252217128;25721431;25216229;1159;0;524
201085911;249085666;25279842;24590233;14282;0;526
239014098;296844943;30403670;29720606;13305;0;528
193803520;240193538;24508055;23829947;12939;0;530
202247102;250454498;25486507;24768267;13306;0;532
190286256;235941413;24101806;23610248;2441;0;534
166594422;206706868;21120247;20521632;10864;0;536
185614088;229784812;23385438;22713619;12329;0;538
168089719;208459000;21221870;20726716;4944;0;540
174356609;216114437;21997075;21368015;12146;0;542
173942548;215593748;21948735;21312653;11780;0;544
191840757;237924379;24242370;23701712;5921;0;546
206313559;255368181;25967463;25238289;15869;0;548
206354818;255590166;26052668;25331486;13672;0;550
229227746;283865118;28834399;28031057;14587;0;552
191759214;237480349;24201904;23522777;13549;0;554
215684079;267139514;27195914;26440709;16236;0;556
184590592;228817590;23412110;22654563;11780;0;558
201227573;249356905;25431148;24926766;2624;0;560
216603877;268292221;27311270;26559194;14344;0;562
196782821;243678758;24772885;24077490;13427;0;564
199334145;247044228;25126522;24419961;13367;0;566
201171848;249068027;25318355;24603539;13428;0;568
185086135;229922385;23494081;23040828;2746;0;570
158116966;195860948;19978220;19373160;10864;0;572
208145280;257782055;26261468;25528278;14038;0;574
196873214;243817857;24814878;24259630;4395;0;576
203059966;251353117;25573604;24850033;15136;0;578
179438810;222065227;22585697;21935717;11291;0;580
200162818;247789466;25249447;24693057;3357;0;582
160950150;199257547;20304330;19701171;9948;0;584
221664106;274529266;27946340;27179854;15503;0;586
191018981;236868718;24170349;23631313;3479;0;588
219454395;271583473;27566397;26810908;13794;0;590
187090342;231556719;23564942;22869599;13733;0;592
167475096;207447528;21193305;20746444;2136;0;594
222426799;275505947;28052540;27291174;14649;0;596
208074663;257668835;26234186;25500844;12879;0;598
180469753;223418618;22725528;22071877;10865;0;600
185084426;229226037;23362550;22681769;14343;0;602
205540978;254843891;25993037;25430747;4089;0;604
193048273;239174559;24375914;23673026;12878;0;606
222129009;275077970;27981862;27195833;14282;0;608
207121785;256543593;26149713;25411871;14282;0;610
216053219;267489854;27212882;26443363;13794;0;612
192055721;237675661;24152465;23446634;12879;0;614
198269634;245515790;25004819;24288211;13794;0;616
217199700;268975020;27399038;26811879;3174;0;618
190700561;236065435;24028137;23333647;11047;0;620
170151542;210958506;21583990;20931058;12207;0;622
168768916;209109572;21382880;20863807;5066;0;624
206799885;256282059;26083307;25370660;15137;0;626
222407207;275050993;27917836;27137228;12207;0;628
188673894;233713024;23856872;23172570;12512;0;630
191654905;237322024;24173828;23466465;12023;0;632
201718844;249842927;25487423;24921165;4333;0;634
215428526;266960621;27244315;26482062;15320;0;636
197743940;245029402;25016843;24298187;13550;0;638
232075761;288331659;29542588;28814237;16419;0;640
180580715;223507728;22739749;22066664;13062;0;642
151798318;188016913;19205395;18618780;9949;0;644
194398916;240783990;24553099;23835676;12512;0;646
1176634256;1508159835;167288513;163391109;16784;137;648
941069979;1177764930;123146962;120839291;25940;137;650
942006622;1175913066;121893670;119566171;25452;137;652
692889462;860727899;88040608;86203229;25757;0;654
974594246;1221849411;127891458;125604580;26795;137;656
955300289;1194766839;124373766;122190678;24963;137;658
983561142;1234604322;129588230;127314394;27649;137;660
983229417;1228885892;127634561;125335857;26245;137;662
999688237;1255521200;132030180;129817406;25757;137;664
1075902763;1374738180;150832560;148209088;25757;137;666
1015987328;1279932148;135664569;133226096;24841;137;668
984776776;1239150454;131143341;128930574;24170;137;670
981384206;1235931040;130757417;128508960;23926;137;672
962538307;1204899076;125589888;123319258;26367;137;674
1324166105;1751942353;207864152;203947306;24292;137;676
955340023;1193683651;123902698;121567464;22888;137;678
970103290;1216794126;127840676;125498651;25024;137;680
954480406;1191141237;123337209;121103733;23743;137;682
976948366;1223005476;127641458;125410436;23620;137;684
962161416;1205150235;125902327;123530275;22644;137;686
1731023095;2335824647;286650634;281695415;25391;137;688
1226823581;1588179955;178848725;175715953;19714;137;690
943652492;1176398294;121316584;119057143;20630;137;692
971110551;1213223762;125960310;123781315;22339;137;694
1100031303;1408783869;154798737;152193177;23498;137;696
962389199;1204704252;125954511;123559070;22339;137;698
976909303;1220835498;126758770;124467274;23376;137;700
938152871;1171420890;121648370;119407790;25330;137;702
1029071950;1306484449;141170110;138847857;23315;137;704
1056672161;1344264198;145853203;143157834;22156;137;706
1003540705;1265855158;134644431;132240515;21179;137;708
962083596;1204265472;125663924;123320596;21179;137;710
989855620;1244999925;131357879;129065136;23682;137;712
960973615;1197722214;123103384;120927663;21972;137;714
1199022443;1538422209;168992854;166223308;23560;137;716
964562045;1202837130;123974231;121703198;17456;137;718
972949230;1212943184;124838913;122484337;15991;137;720
963653416;1204432769;125306808;123041398;15381;137;722
944476708;1178190831;121959526;119717023;16113;137;724
1101219349;1384800410;145317926;142928706;16419;137;726
961159038;1199025983;123909412;121600601;16357;137;728
1124182181;1429973573;154139803;151312761;16052;137;730
1641895516;2135716090;237244754;233277577;17029;137;732
964297519;1205769619;125222519;123015926;15564;137;734
1446936665;1868736733;205586143;202048779;16419;137;736
968110986;1208478840;124862412;122530916;16418;137;738
314161489;388501935;39170615;38083765;11353;0;740
982081592;1225491492;126330365;124364670;6042;137;742
956479424;1195305412;124069324;121876744;16053;137;744
1216191467;1525101687;171158254;154665980;21667;137;746
961026654;1196424427;122814749;120737427;15320;137;748
969888325;1212678841;126031293;123788151;15320;137;750
1607956211;2072620793;225513522;221988077;16906;137;752
1028533194;1293842696;135881183;133429998;15564;137;754
1097634580;1391141153;148471849;145909579;16723;137;756
397745320;492344565;49738948;48466384;13611;0;758
942568082;1173157519;120294187;118473195;3174;137;760
1390954264;1765338560;185326002;181945033;16602;137;762
971499893;1216011353;126737285;124387015;15808;137;764
946175678;1179829683;121649835;119552740;15137;137;766
971524124;1210364638;124307848;122077953;15930;137;768
951101020;1185890824;122115349;119869382;15686;137;770
945675740;1179619966;121945122;119826356;14404;137;772
1003851068;1255684530;130763826;128479728;15381;137;774
1288071654;1650098070;179444121;176703360;15625;137;776
971821731;1213473944;125472091;123155052;14832;137;778
956354424;1193622799;123856373;121535033;15502;137;780
960709333;1200592569;125186753;122942763;15259;137;782
1074978388;1343758279;140226264;136666553;16236;137;784
1007420028;1258775586;130265658;127858471;15808;137;786
977903503;1219186576;125489730;123126100;15197;137;788
965427033;1204818571;124648180;122286941;16297;137;790
1064575278;1338590567;140292731;137754390;15991;137;792
1114807998;1414560771;151525307;148689201;15198;137;794
964493686;1202797641;124202380;121959589;15930;137;796
1130506078;1430885192;151338541;148730228;16357;137;798
984070479;1232440937;128671607;126345194;15808;137;800
1060271639;1337671075;141302739;138832556;16296;137;802
953488953;1188202097;122548819;120295109;17151;137;804
953575318;1189045723;122752311;120406596;15442;137;806
1004494987;1259924692;131691252;129220765;15137;137;808
949434154;1183007775;121867242;119578121;15503;137;810
950901313;1184479267;122004143;119687310;14770;137;812
1266801017;1604611493;168959345;166003289;15320;137;814
980426324;1221174180;125437057;123151882;15503;137;816
1404128730;1785721564;188324286;185209897;15381;137;818
959276963;1194207758;122560050;120341611;15075;137;820
946015950;1179316073;121829583;119444730;15503;137;822
969201193;1209828995;124880723;122559692;14771;137;824
952553286;1184721638;121173579;118921447;14648;137;826
1490323150;1899636189;199931495;196634634;15442;137;828
1338072379;1686567033;173160934;170199624;16113;137;830
961249126;1193408871;121029170;118938014;15747;137;832
1200533487;1504575494;153847384;151037173;15198;137;834
954667966;1182666467;119325866;117031303;14526;137;836
1015389918;1267889272;130448091;128149365;15015;137;838
1008296247;1253711818;127759927;125584610;14892;137;840
965497590;1200282571;122462516;120248422;14893;137;842
1112460226;1394911712;143955991;141523832;15991;137;844
1012408602;1265455683;130385042;127820339;14954;137;846
959602402;1194548333;122333366;120040890;13733;137;848
995455277;1240404905;127256327;124983691;14831;137;850
995854750;1243748952;128178627;125863060;14648;137;852
978487485;1216481627;123987598;121740857;15198;137;854
1113287067;1397512230;144714656;142122470;14221;137;856
950922126;1182439661;120707699;118419768;16052;137;858
968826743;1204569304;123087759;120778587;13977;137;860
960268171;1195506461;122575125;120180510;15197;137;862
1071262211;1334592897;135855243;133838031;15076;137;864
1093418832;1371846891;141887149;139486915;14954;137;866
1345716342;1703823824;177923006;175053755;15442;137;868
10835848;14696068;1849727;1663982;244;0;870
11099886;13053860;1158567;952593;0;0;872
9962621;12411101;1403622;1192871;0;0;874
8426980;10792513;1372128;1145909;1709;0;876
10838352;12762418;1156918;936141;1099;0;878
10996066;12919522;1142148;934475;977;0;880
8071452;10381199;1338681;1120476;1404;0;882
9196815;11447175;1299984;1085246;1220;0;884
11011569;12969876;1171994;952955;1281;0;886
10147374;12194488;1203366;993605;732;0;888
8047953;10354587;1336484;1121556;916;0;890
10477085;12693693;1285397;1058832;1159;0;892
10924898;12886991;1171689;948572;1648;0;894
9222938;11427644;1287350;1072134;1221;0;896
8143351;10489902;1355466;1134411;1037;0;898
11007357;12989041;1173947;961860;732;0;900
11222323;13211148;1181638;960292;977;0;902
8377114;10706882;1342343;1124775;1465;0;904
8862099;11126742;1320554;1097723;855;0;906
11002535;12948209;1161740;946385;1587;0;908
10476231;12528349;1216305;991425;977;0;910
8237771;10602817;1360836;1141536;1709;0;912
9899571;12039398;1257199;1034388;1099;0;914
11091952;13067715;1178891;962074;1160;0;916
9549109;11740814;1290890;1063239;1648;0;918
9365210;12037688;1514156;1293224;1159;0;920
11079012;13036832;1167172;949831;671;0;922
11247408;13263821;1189389;973907;855;0;924
8365396;10776095;1390805;1158196;1160;0;926
8180399;10532383;1359859;1134840;1587;0;928
8411112;10845798;1392453;1167527;1526;0;930
10555698;12692716;1252438;1029859;1587;0;932
11107576;13101346;1189877;964738;1586;0;934
9001442;11258455;1320187;1098885;1587;0;936
8252481;10641879;1382870;1156578;794;0;938
8408121;10819308;1383419;1159907;1465;0;940
9427894;11669099;1309689;1081741;671;0;942
11242830;13236538;1190793;968314;1709;0;944
9987645;12146880;1265988;1038049;1526;0;946
8313700;10729831;1384335;1157602;1281;0;948
10799166;12925321;1256039;1021439;1220;0;950
11034091;12987698;1170956;950251;1037;0;952
8701149;10980258;1331662;1104278;1586;0;954
8305277;10699314;1384213;1155784;1343;0;956
8354043;10782627;1399838;1161346;1282;0;958
9597814;11811066;1298397;1070654;1282;0;960
11115939;13115262;1191220;965796;1648;0;962
9833105;12003571;1274716;1046489;1342;0;964
8135843;10497104;1373287;1140175;793;0;966
13601161;16170247;1473812;1231596;1038;0;968
11130708;13127713;1192502;966815;977;0;970
8300516;10708469;1388241;1157617;1404;0;972
8294290;10686557;1392574;1150391;1037;0;974
8353677;10780185;1406307;1166989;1526;0;976
10538486;12662138;1254941;1017675;1038;0;978
11214754;13206631;1196530;966355;1343;0;980
9024513;11348848;1360104;1119802;1465;0;982
8317789;10736057;1399044;1167343;1221;0;984
8375772;10797946;1400875;1162980;1404;0;986
9673010;11931366;1318722;1087404;1038;0;988
11197664;13208585;1210202;972628;793;0;990
9854223;12050018;1295163;1062041;1281;0;992
8294474;10718967;1414731;1168036;1343;0;994
10928927;13015531;1239987;1002024;1160;0;996
11197542;13215908;1217953;977646;1343;0;998
9855810;12579191;1551509;1311392;1160;0;1000
8322366;10750888;1410336;1170135;1099;0;1002
8410928;10850131;1412961;1174031;1160;0;1004
10786837;12942533;1279233;1032385;1038;0;1006
11206698;13215298;1205685;977180;977;0;1008
8902260;11226473;1366208;1127203;1526;0;1010
8315713;10739657;1413021;1172866;1099;0;1012
8432474;10875643;1417416;1170374;916;0;1014
11269563;13734645;1422787;1184264;916;0;1016
11113558;13121609;1204892;969584;916;0;1018
9337012;11599945;1330685;1089787;1648;0;1020
8360513;10805392;1423764;1172070;1221;0;1022
11221529;13243619;1220761;978522;1098;0;1024
