CORE;CPU;DRAM;DURATION;UNCORE;EXIT_CODE;INPUT
3959462;4692553;379638;350364;1098;0;2
8409646;9694128;688353;651207;732;0;4
11920196;14060878;1120786;1072713;1221;0;6
14967980;18384108;1773738;1722559;611;0;8
26423577;30792646;2275934;2200178;1648;0;10
27374442;32701088;2771843;2678797;2014;0;12
26439873;31894999;2865166;2773488;2198;0;14
33621374;39317465;3003776;2902229;1892;0;16
39146506;46219853;3717093;3601276;1831;0;18
28193776;34991793;3571097;3460599;1770;0;20
46311039;57425390;5815720;5661692;2502;0;22
56085733;67157360;5809251;5650832;2685;0;24
48082030;59573761;6030685;5872491;2564;0;26
62499290;75189444;6656905;6471927;2503;0;28
61914087;74369988;6536605;6359871;2869;0;30
67938791;84492764;8553140;8431814;1648;0;32
62693565;77723129;7873210;7681038;3174;0;34
68980902;85516383;8658303;8441181;3296;0;36
73354914;91023876;9217933;8996221;3174;0;38
71061647;88040179;8907692;8688293;3052;0;40
82255160;101987898;10302708;10050240;4029;0;42
81975742;101602096;10278049;10054536;2930;0;44
88402362;109505091;11073275;10812007;3601;0;46
94840822;115213450;10696201;10419758;3662;0;48
96228086;119187439;12079864;11779731;4517;0;50
101434494;125804304;12770109;12469180;4211;0;52
159837115;198672648;20108835;19791619;2258;0;54
108063078;133943688;13580165;13245949;4578;0;56
119683959;145985100;13783534;13444322;5371;0;58
115443186;143083618;14484216;14126477;4638;0;60
118009952;146409782;14837425;14534233;4028;0;62
133270655;164939763;16653522;16262669;5677;0;64
133142115;165011052;16694904;16305948;5249;0;66
329084850;407320064;41178728;40494994;6348;0;68
151463174;187718514;19047619;18595329;5494;0;70
146183708;181246546;18359572;17949597;5493;0;72
143852659;178277986;18051589;17669164;4822;0;74
151989052;185884778;17796586;17365818;6103;0;76
154515351;191288939;19301403;18856991;5859;0;78
190396241;235985907;23877258;23425137;5005;0;80
170607596;211230233;21388007;20917522;7080;0;82
203744351;252025600;25481563;24902824;6775;0;84
207255024;256825515;25980647;25556514;3052;0;86
180947718;224152380;22674014;22129087;7019;0;88
175324503;217286614;21960088;21474065;6713;0;90
186418895;231310748;23386231;22986331;3234;0;92
190550599;233837841;22659305;22141636;6653;0;94
201754610;250191132;25359066;24776906;8911;0;96
197412337;245149702;24907834;24500367;2320;0;98
201266880;249396151;25190304;24636360;7386;0;100
205364648;254649922;25801447;25202011;7995;0;102
201401340;250055634;25445247;25052852;793;0;104
213587527;264632197;26762321;26142993;8667;0;106
227196806;281985667;28573047;28027774;7080;0;108
232743606;288509088;29211473;28551395;8606;0;110
220337998;273070285;27631094;27021092;7080;0;112
222447063;275650296;27816152;27176394;7813;0;114
237417666;294359903;29767624;29154965;8362;0;116
232506729;287867366;29038500;28369754;8056;0;118
257360730;320105809;32779213;32200264;7080;0;120
259650886;319345252;31308148;30580268;8789;0;122
250970549;310938718;31442730;30801354;6958;0;124
250186310;310097228;31401409;30714396;8789;0;126
265289482;328564345;33207435;32543837;6836;0;128
259815558;321625092;32476662;31742090;9827;0;130
265442314;328864698;33234046;32578914;6775;0;132
267701707;331198981;33298987;32528500;10010;0;134
271144875;336068414;34010716;33347783;5860;0;136
284271855;352219679;35520967;34697344;10254;0;138
270413065;335164974;33907201;33271063;5493;0;140
289693777;359162838;36432096;35591378;10254;0;142
299601345;371769129;37600734;36994385;5066;0;144
301715048;374048725;37913049;37054509;11474;0;146
292451582;362373767;36624052;35985395;4822;0;148
312894096;387499740;39177146;38286106;10376;0;150
332214909;408930838;40362201;39642965;4761;0;152
326031026;403914249;40805010;39926389;11292;0;154
319997899;396740866;40169148;39506251;4394;0;156
336755119;416877717;42125807;41152951;12695;0;158
331984807;411641402;41608963;40951038;3723;0;160
345399995;427997867;43289013;42374406;12268;0;162
362866991;447450331;44319344;43604848;3356;0;164
352167677;435790083;43928415;42948409;12695;0;166
362834337;449356088;45420477;44727418;3723;0;168
358390806;443513025;44726509;43725219;12512;0;170
397795124;492988911;49939691;49178115;3051;0;172
406136350;503031794;50891105;49756878;14892;0;174
870876921;1077180104;108984767;107389240;2014;0;176
178217012;218476491;21199469;20679755;7752;0;178
437843727;542588821;55024029;53971052;8606;0;180
395310023;490433803;49829951;48754662;13977;0;182
301766989;374189899;37895410;37328289;1464;0;184
456699575;565087726;57019202;55800104;14465;0;186
533291665;660977311;66950817;65642049;14648;0;188
358829160;444088523;44926520;43884079;12756;0;190
471069107;583295076;59018830;58105755;3601;0;192
552071096;684204059;69218756;67952942;14221;0;194
531423017;657864221;66453870;65109083;14099;0;196
497789253;616767647;62426903;61125004;14282;0;198
442404629;548460571;55676188;54492096;15198;0;200
467160730;578429428;58601657;57345594;14649;0;202
549516537;680850857;68993537;67615820;14343;0;204
532214030;659149618;66720228;65351170;15076;0;206
441754362;547553591;55517192;54321466;15015;0;208
431278681;533524086;53839339;52613295;14343;0;210
407017512;501948788;49841120;48707818;14160;0;212
402487984;498346808;50425897;49697977;2014;0;214
697714035;864456405;87516316;85905883;14892;0;216
340563521;421435018;42509108;41554718;12512;0;218
405266968;501966732;50792656;49974589;3418;0;220
388383588;481031422;48618955;47593834;13977;0;222
376922802;464536653;46031864;45342883;2258;0;224
445453938;551512565;55845011;54550441;15442;0;226
855544319;1059023106;107001191;105067795;14954;0;228
329797679;408470573;41255204;40351955;12391;0;230
313150688;388101973;39331016;38646448;4150;0;232
300347131;371940210;37637538;36757609;11596;0;234
161063370;199570595;20211679;19763409;5005;0;236
302426105;374488787;37874170;37014235;11658;0;238
281220532;348438012;35312898;34694850;4577;0;240
214872741;266364003;27022697;26397906;8301;0;242
320088048;396414451;40055195;39296972;7141;0;244
312348688;386719591;39178306;38293622;10804;0;246
298094634;369998137;37559413;36983440;5066;0;248
332549258;411782942;41703873;40794757;11597;0;250
362339770;448463817;45319464;44561709;3723;0;252
314878039;387268295;38051660;37201897;11230;0;254
382731992;474178535;47980468;47176217;4943;0;256
152725134;189362980;19266675;18780544;6409;0;258
960061141;1195593497;122809622;120870818;10132;137;260
348428185;432653311;43992685;42987058;12451;0;262
382867672;474541265;48011657;47284950;4456;0;264
491224756;608202789;61393764;60147536;14832;0;266
973942392;1213294501;124650926;122826858;15686;137;268
304582533;379098150;38789756;37910287;10253;0;270
256455215;316846052;31400432;30876254;4760;0;272
245434003;304244399;30832623;30126013;10010;0;274
338208668;419004848;42313673;41522737;6714;0;276
200296362;247947974;25046444;24472054;6836;0;278
254934833;315563096;31921000;31220466;9034;0;280
215880917;267592577;27163748;26547942;7874;0;282
198596537;246153972;24877866;24274399;8056;0;284
1065166035;1333883853;137868910;135761556;15259;137;286
292791487;362926805;36618802;35790709;11108;0;288
1017433247;1274876009;132311673;130674799;6409;137;290
1019560622;1277361537;132367825;130236894;15442;137;292
1015354274;1271438029;131795195;129692724;15380;137;294
209748182;259663520;25945124;25298438;7386;0;296
293303814;363375047;36796109;36003961;8057;0;298
276339808;342074075;34612521;33807815;10071;0;300
175993873;218156058;22126408;21605273;4883;0;302
194010001;238092530;23133608;22566874;7996;0;304
247887671;306886544;31043622;30342864;8057;0;306
264154842;326924090;33068763;32261648;10132;0;308
161868971;200494726;20364816;19876885;7264;0;310
989606475;1239120180;129035437;127115573;14526;137;312
905922791;1120603699;112979875;110771041;15992;0;314
702999299;869673311;87998371;86380588;15137;0;316
1072553284;1349407983;141884281;139803776;14649;137;318
999109869;1248129617;128787695;126715277;16479;137;320
454351009;563364769;57247290;55951523;15320;0;322
1058320655;1323254547;135853534;133678702;15076;137;324
964335117;1204192413;124540270;122467643;15564;137;326
987468724;1230721093;126233869;124116981;15442;137;328
959253892;1195245354;123028799;121136611;16296;137;330
989269623;1235922251;127922646;125796424;14526;137;332
1237057014;1568755628;165859378;163514435;14344;137;334
335911921;413802041;40899492;39853431;11902;0;336
582660068;721826155;73172786;72093917;4883;0;338
967352504;1203848298;123089407;121107859;15441;137;340
432931692;535825350;53914962;52691105;14527;0;342
980405815;1221743821;125899519;123981378;14832;137;344
1164740915;1471554277;154637361;152368767;15869;137;346
1003815423;1252576322;128849524;126803550;16418;137;348
996107680;1238875734;126349041;124283509;14099;137;350
2182511319;2818999742;301977255;297777956;17090;137;352
898678302;1110581080;111472370;109453974;14771;0;354
973595347;1217212339;126582928;124634927;15442;137;356
981745717;1227391633;127156596;125099179;14648;137;358
984950970;1228432829;126450238;124504742;14038;137;360
803719805;995133133;100807298;98872975;14527;0;362
1481731741;1893397924;201517978;198261829;15869;137;364
1550825498;1976131965;207316547;204059536;15808;137;366
1147789359;1439592995;147765491;145369690;15869;137;368
252473597;313077324;31797403;31012152;8851;0;370
212086676;260188604;25332699;24703428;7385;0;372
254163412;314963122;32006266;31251186;9461;0;374
241548637;296777927;29152270;28499063;6226;0;376
168284725;208608353;21178779;20666185;6104;0;378
185839551;230296041;23390809;22804108;7507;0;380
218554372;268218124;26197138;25693020;2563;0;382
230727986;283061470;27663260;27001236;7751;0;384
188835637;233853039;23730591;23156705;7141;0;386
201374912;246938150;24046386;23611371;915;0;388
208905655;256206619;24963437;24352039;7080;0;390
205175439;254344686;25838495;25229446;7507;0;392
151187052;187381600;19071545;18718409;976;0;394
243787950;301934957;30664716;29912061;8972;0;396
174692302;216311214;21894598;21353781;6897;0;398
218609487;270819558;27544485;26855978;8361;0;400
204104214;252898645;25704402;25092463;7507;0;402
248357580;304734389;29776352;29050518;8972;0;404
171299915;212376715;21599127;21047919;6225;0;406
178738617;219097645;21263251;20872183;1038;0;408
187239328;232004045;23533509;22954587;7325;0;410
245866924;302058919;29652634;28942550;8362;0;412
211252694;261469850;26515679;25854476;9033;0;414
232366043;287516109;29115953;28425516;7263;0;416
232728652;287910701;29150194;28451781;9399;0;418
220272568;270404032;26364679;25721920;7203;0;420
186995371;231566119;23504518;22918780;7507;0;422
230191488;285161746;29044481;28400527;8728;0;424
150282208;186034985;18943311;18425625;5920;0;426
207101825;256513077;25969905;25348623;8240;0;428
211642586;262164062;26639946;26141482;3174;0;430
199349954;246593424;24947445;24316302;7080;0;432
220089280;272307591;27587698;26913525;8483;0;434
224599339;278071920;28204823;27521481;8178;0;436
223429542;276412012;27961537;27315436;7690;0;438
207039936;256154496;25967097;25303783;8239;0;440
230054343;284857242;28907519;28229050;7812;0;442
193889091;240050960;24401976;23788170;7202;0;444
204112454;252701380;25665767;25010598;8789;0;446
158390342;196557541;20036020;19648446;1587;0;448
196163377;240580989;23418091;22828677;6897;0;450
214492431;265663016;26970573;26307773;7874;0;452
254762837;315634568;32036722;31520014;1587;0;454
204052151;252836327;25723933;25096093;8300;0;456
213973085;262814513;25766841;25136250;7874;0;458
198099713;245261823;24897642;24460217;672;0;460
233577344;289336784;29461716;28725564;9644;0;462
192627315;238530944;24251830;23641437;7873;0;464
207028462;256312332;26088678;25435426;7629;0;466
234442393;290424428;29530808;28856591;8118;0;468
208267412;258095043;26145441;25549185;7630;0;470
217136834;268663802;27200064;26539202;8240;0;472
177028172;219258106;22285588;21716459;6226;0;474
191556822;237227726;24198913;23472544;8972;0;476
237832704;294740701;29960556;29432495;2930;0;478
203132842;248961704;24222167;23598770;7812;0;480
222260539;275352139;27974720;27317224;9095;0;482
223233010;276781274;28172596;27482688;8118;0;484
216266780;267943589;27258841;26618082;7751;0;486
209343092;259236397;26330865;25681664;8362;0;488
200652440;248617833;25292293;24677025;7202;0;490
183927020;228272670;23249574;22847620;1037;0;492
192812373;238844542;24213683;23607789;6714;0;494
192963373;236584905;23007814;22418548;7507;0;496
189558353;234916147;23926696;23469886;1953;0;498
234803843;288184443;28186268;27460762;8606;0;500
198684306;245966533;24944273;24327499;6836;0;502
154065523;188534796;18237258;17725892;5738;0;504
202325776;248083777;24178954;23563584;7324;0;506
217685539;269472760;27276846;26744278;4456;0;508
206383566;255276935;25966731;25269500;8300;0;510
205425073;254407979;25856135;25211859;7629;0;512
192357967;238179444;24065552;23457799;7569;0;514
205388024;254128988;25641353;25013839;7019;0;516
210024242;260195989;26470391;25980583;2258;0;518
231804766;287069578;29113756;28412781;9583;0;520
183334797;224721959;21874639;21303314;6347;0;522
201482212;249319369;25260494;24778446;1892;0;524
196467148;243181324;24722837;24074568;7141;0;526
213566897;264469416;26864250;26194430;8301;0;528
187101084;231741045;23587281;23149591;976;0;530
208176835;255582415;24980282;24362689;7568;0;532
193276421;239550229;24423888;23791276;7141;0;534
161220474;200097693;20386239;19985738;1953;0;536
184021074;227583097;23090822;22485463;8179;0;538
167400878;207381122;21106330;20547872;5676;0;540
184315385;229184655;23498902;23075673;3174;0;542
170290092;210778208;21392340;20831678;6470;0;544
193028009;239260129;24326720;23695527;8179;0;546
204593836;253716696;25849177;25346236;2991;0;548
200764562;248621495;25264340;24626064;7569;0;550
223788368;277135338;28149647;27467861;7324;0;552
191430846;237097721;24114745;23486843;7507;0;554
215029662;266422230;27117179;26435786;7508;0;556
174721599;216544062;22058903;21638143;976;0;558
198729532;245989970;24988339;24350943;8484;0;560
211845710;262105958;26565240;25884141;7629;0;562
192652339;238848571;24296447;23850751;1098;0;564
194602285;241195916;24595823;23975610;6897;0;566
198129681;245223127;24852658;24225534;7751;0;568
171530384;212590703;21667181;21239968;1831;0;570
156461025;193668937;19682140;19160825;7202;0;572
213697695;262284057;25686885;24994882;7995;0;574
194610647;241225640;24571043;24074779;2929;0;576
202702850;251000701;25525935;24866257;7568;0;578
186899241;229044946;22246769;21644596;7752;0;580
211117074;258968453;25221493;24717350;2747;0;582
159725788;197669965;20098947;19551047;6226;0;584
228176113;280305923;27552297;26830616;8301;0;586
193118524;239054258;24221557;23741581;2197;0;588
217271660;268936629;27356376;26625667;8362;0;590
186754221;231401263;23630494;22992399;6836;0;592
167063354;207127766;21131476;20689542;1953;0;594
219804674;272454381;27820852;27109791;7751;0;596
205877281;254767170;25848750;25202791;8179;0;598
186403759;228543177;22279484;21684444;6530;0;600
184376420;228546412;23304201;22703964;7446;0;602
202523347;251024626;25558345;25051253;2747;0;604
198796855;246626932;25193356;24571160;7019;0;606
225732821;276947777;27106437;26414720;7935;0;608
204797388;253698508;25843989;25170664;8667;0;610
215090391;266428639;27130119;26456850;7752;0;612
199556923;244785872;23941223;23308734;7141;0;614
194670400;240995355;24486936;23856994;7447;0;616
218719777;271108559;27589590;27071341;2502;0;618
192062619;237976381;24271483;23613411;8118;0;620
167110534;206951740;21078864;20515811;6225;0;622
168536251;208918776;21256782;20792078;3357;0;624
194720510;241418022;24650755;24013899;7019;0;626
232502945;288117365;29285082;28613580;7934;0;628
188102180;233065810;23744873;23129228;7507;0;630
191349180;237086063;24154479;23537097;7447;0;632
203730496;252517969;25686336;25191988;2563;0;634
212422796;263227719;26864495;26170714;7751;0;636
195360217;241774162;24557005;23904309;7447;0;638
205137231;254496235;25978205;25514796;1037;0;640
184708878;226355866;22102116;21477477;6165;0;642
153729587;190467103;19447155;18908324;6225;0;644
187362985;232104020;23644043;23110099;3967;0;646
949600047;1182525171;121314569;119448957;15625;137;648
956143976;1189839117;121899834;119744817;15259;137;650
985806070;1225422156;124786362;122785111;15381;137;652
689069647;853679212;86650780;84809203;15869;0;654
1026151975;1289161251;134778280;132776683;15625;137;656
966236296;1200510110;122032036;120118045;16662;137;658
1043908033;1302010400;133633691;131977197;15442;137;660
1155621371;1450166210;148949570;146804118;15869;137;662
958135670;1191511720;121645501;119631464;15259;137;664
1038522671;1302413597;135145772;133076363;14892;137;666
1054014453;1321497350;136425798;134220244;16358;137;668
975326177;1213331977;123684620;121580977;14770;137;670
996907543;1244508289;127960365;125731790;15503;137;672
978516355;1219323172;124849351;122742201;15015;137;674
972299513;1211641368;124309862;122300712;15625;137;676
1101322437;1387397510;145198603;142778537;13977;137;678
975863469;1211830150;122385063;120394323;15808;137;680
1026846370;1287595398;133799584;131771528;15503;137;682
949425609;1181993373;121155696;119069442;14831;137;684
971631667;1207512656;122978383;120883809;15137;137;686
1053013539;1316828599;136147052;134209592;15503;137;688
962740150;1195135063;121174494;119146496;15197;137;690
1053592579;1320367469;136669023;134357808;14588;137;692
967546901;1207597678;124496630;122367198;16479;137;694
954640073;1186717299;121228816;119113779;15686;137;696
980064203;1220697497;125313461;123295996;14649;137;698
1134470729;1422911336;153064915;144750050;15075;137;700
1005153676;1256861406;129894687;127935649;14954;137;702
973209911;1210603896;123133474;121017496;13733;137;704
970216754;1211468029;125142563;123086090;15930;137;706
1005314993;1253120999;128307044;126197041;15075;137;708
1075520624;1347200347;139106578;136737043;14954;137;710
950883185;1180842863;120093198;118103079;15320;137;712
960724164;1198472090;123550526;121491053;14831;137;714
981459401;1223957683;125840986;123761236;15015;137;716
977488526;1217759761;124738634;122675472;15259;137;718
1322016879;1675274703;176206458;173356192;14343;137;720
974755195;1208803790;121966484;119972312;15137;137;722
958955858;1195881582;123033376;121160610;14892;137;724
1005547109;1250189792;127267680;125388079;14832;137;726
972922924;1209447770;123376576;121303138;14404;137;728
1316276415;1667255680;174329448;171573042;14343;137;730
1120178102;1402330211;143445800;141314470;15808;137;732
987852574;1229546596;125407272;123450292;16236;137;734
1012428134;1257923171;128050270;126042984;15197;137;736
1015197718;1269715805;131293549;129143168;15137;137;738
350720232;431418451;42281996;41250669;12329;0;740
986129250;1228344328;125583174;123909414;4639;137;742
955055112;1186897292;120918758;119116568;16113;137;744
974849922;1215726807;125060532;122940762;15381;137;746
1059970187;1326914755;136492449;134305309;14648;137;748
954204283;1187062941;121167292;119320657;15259;137;750
1269359543;1604811749;167136596;164486239;15686;137;752
968296655;1203085482;122224052;120186051;16052;137;754
1320690711;1676417217;176434241;173697078;14954;137;756
403419499;495181106;48186522;46956426;14587;0;758
1024550295;1282839611;132870692;131114408;3906;137;760
986342567;1230803490;126569317;124411911;15015;137;762
964459872;1198313461;121736993;119788591;14953;137;764
1040050377;1304075519;135257955;132961611;15869;137;766
982197131;1220631031;123915699;121881163;15015;137;768
980728264;1223451519;125840681;123706355;15136;137;770
1118552740;1406408386;146094292;143653511;15137;137;772
1039976647;1302983481;134811911;132473463;14771;137;774
999203802;1248272317;128846167;126772228;14953;137;776
1359268920;1723885846;180411953;177494025;15686;137;778
1306061171;1649675525;170644461;168201246;16358;137;780
1024406618;1282461194;132569912;130374973;16357;137;782
1543641251;1957848381;210170971;200354160;15381;137;784
1444117519;1825117276;191836606;185885875;17700;137;786
1056232282;1317746992;134291954;132075261;15625;137;788
1024247867;1284284982;133409571;131269399;15014;137;790
955967341;1192267883;122941397;120825957;14588;137;792
1034072548;1288944333;131363067;129340182;14831;137;794
952603763;1185099932;121223323;119186889;15564;137;796
953764526;1189508002;122755790;120686081;14649;137;798
953684326;1189056526;122564688;120551119;15136;137;800
1061701689;1325052943;135295003;132881597;14466;137;802
1088764424;1365645247;141024053;138780494;14099;137;804
967196987;1205751613;123892932;121828824;14221;137;806
1084982513;1368370154;143909300;141509141;14343;137;808
965985931;1200242838;121881035;119857822;16419;137;810
934861193;1163856273;119605284;117782854;15625;137;812
961170696;1200147440;123996570;121889680;14343;137;814
969755025;1206729333;123258229;121358338;15320;137;816
1223480083;1549471925;163062143;160626173;15258;137;818
1019182022;1276065337;132176786;129795700;15747;137;820
1377247695;1752806853;184192949;181161415;16419;137;822
1235430431;1567071916;165294499;162294718;15930;137;824
1351428670;1713983283;178877106;176124142;17395;137;826
1246242842;1576871757;164742376;162086290;14832;137;828
970537554;1208107747;123380727;121293220;15747;137;830
1152109233;1458886035;154076999;151387163;14892;137;832
1261130866;1592074354;165648196;162590174;17090;137;834
969082602;1211357861;125467147;123330061;14160;137;836
940236302;1173189502;121285273;119216098;15870;137;838
964622836;1205075406;124844163;122776043;15686;137;840
955336360;1191408510;122649283;120572861;14221;137;842
1264672543;1600647636;168544552;165980738;15503;137;844
1005845691;1259936777;130954316;128724684;15441;137;846
945459433;1176815774;120668942;118600107;14954;137;848
946068562;1179437960;121455012;119560915;14893;137;850
1193903926;1503244382;155711699;153488950;15563;137;852
942831693;1173104419;120079893;118202262;14710;137;854
946126606;1178874545;121199336;119078662;14160;137;856
947671829;1182126185;122173576;120078001;14709;137;858
921084678;1149535631;119144776;117150520;14283;137;860
1126667038;1428205755;151992775;149633242;14770;137;862
940421970;1169756466;119502807;117493001;16174;137;864
944078333;1174729415;120337827;118325111;14405;137;866
1132530853;1433500359;151716347;149130997;15380;137;868
10252721;15658347;2544671;2352484;306;0;870
8291666;10661533;1377010;1149433;2746;0;872
10079198;12251006;1276181;1043042;1037;0;874
11009981;12943693;1157407;940533;1282;0;876
9253943;11393586;1250913;1035214;1281;0;878
8201640;10537204;1341855;1131148;1159;0;880
10915438;12976529;1218564;992086;1099;0;882
10953280;12883878;1144894;936127;1465;0;884
11015413;12941128;1153378;942686;1099;0;886
10847018;12777555;1152219;937000;1831;0;888
11095126;13055264;1159543;949273;1648;0;890
10950778;12880216;1151120;943971;1099;0;892
8821816;11098422;1325558;1104438;1465;0;894
8145609;10473240;1339840;1122582;793;0;896
8208903;10568515;1354305;1137391;916;0;898
9311561;11503389;1279050;1063616;1099;0;900
11032137;12980069;1158323;943662;733;0;902
9929601;12019195;1225949;1013717;794;0;904
8192728;10555270;1358700;1139754;1160;0;906
10307591;12381499;1213193;998231;1404;0;908
11000887;12964140;1179074;956208;2014;0;910
9662756;12064727;1384335;1166918;1587;0;912
8198465;10566867;1370968;1145917;1221;0;914
8169230;10501255;1344784;1125655;1343;0;916
8177042;10547336;1370541;1144507;1159;0;918
8239847;10597934;1354733;1134236;1342;0;920
10370213;12448759;1222165;1005387;854;0;922
11078768;13058927;1179563;962100;1221;0;924
8984779;11253145;1321713;1093718;1648;0;926
8203104;10572543;1364499;1142533;1282;0;928
8261209;10641148;1370541;1146935;1342;0;930
8141092;10481174;1357419;1133938;1037;0;932
8268168;10642917;1374509;1144342;854;0;934
10423375;12537565;1243283;1020780;1282;0;936
11116182;13089200;1181821;965443;1098;0;938
8935097;11149019;1295468;1073949;1220;0;940
8326944;10719149;1387997;1154497;1221;0;942
8325296;10718478;1379818;1157175;1343;0;944
8285563;10687412;1383419;1156366;1221;0;946
8271952;10665989;1379452;1153395;1404;0;948
10423191;12548857;1255368;1024448;1404;0;950
11180269;13167874;1187558;967017;1403;0;952
8888466;11126619;1303220;1082033;1037;0;954
8137797;10503452;1366329;1144745;610;0;956
8299478;10684726;1375546;1145073;672;0;958
8136698;10498264;1359677;1144029;610;0;960
8337381;10728183;1378476;1150222;1220;0;962
10503147;12648406;1259823;1033598;1159;0;964
11267427;13285794;1208554;975330;1342;0;966
11509675;14577538;1716121;1482545;1404;0;968
8309000;10703342;1379269;1150607;1098;0;970
8756753;11261323;1451717;1216253;1343;0;972
10741550;12873014;1252866;1018927;854;0;974
11163790;13148404;1190121;963059;1709;0;976
8728921;11046053;1354305;1122508;1403;0;978
8178324;10551059;1377255;1144560;1098;0;980
8268778;10659946;1387814;1148275;854;0;982
8214151;10588230;1382504;1149687;1159;0;984
8477395;10934054;1420529;1178140;1281;0;986
10889864;12987455;1239193;1007760;1282;0;988
11095003;13081387;1199704;965593;976;0;990
8695900;11058932;1369137;1136406;1831;0;992
8259806;10680026;1404415;1167958;1221;0;994
8308878;10723240;1385922;1151747;1221;0;996
9978490;12197235;1300412;1061459;1220;0;998
11063204;13052518;1195615;964918;1892;0;1000
9535315;11779816;1320675;1080306;1770;0;1002
8238993;10641880;1392147;1156973;977;0;1004
10998629;13041410;1224728;983317;1648;0;1006
11186983;13202053;1203794;975436;1038;0;1008
9172218;11801850;1507076;1265124;1770;0;1010
8395547;10826145;1403622;1166137;1342;0;1012
8410623;10864107;1429074;1183898;1282;0;1014
10763217;12907865;1260678;1026635;733;0;1016
11346345;13400783;1232297;990004;1770;0;1018
8734353;11096896;1381039;1140252;977;0;1020
8328470;10766086;1424312;1175010;1099;0;1022
8443887;10910800;1424191;1183840;916;0;1024
