CORE;CPU;DRAM;DURATION;UNCORE;EXIT_CODE;INPUT
1143064;1524837;205321;180337;732;0;2
2260736;2833977;331970;295564;306;0;4
3339408;4169911;481078;434541;244;0;6
4861132;6073776;697386;633431;366;0;8
6357588;7910685;898313;820404;672;0;10
7044538;8788185;1011228;925525;305;0;12
8374734;10423618;1178891;1085634;549;0;14
9429419;11750885;1333370;1226702;610;0;16
11140170;13879359;1574581;1451439;733;0;18
13438686;16736468;1897517;1740501;1220;0;20
15314108;19084668;2154658;1998952;1099;0;22
15292929;19070935;2160150;1996991;1465;0;24
16499043;20542733;2310847;2147031;916;0;26
18577223;23148866;2611749;2422300;1159;0;28
19558605;24347838;2737908;2542811;1038;0;30
20829598;25952326;2924126;2717594;1282;0;32
21479742;26768914;3008903;2797313;1220;0;34
24627561;30675276;3460013;3214378;1282;0;36
25413326;31664165;3555472;3316285;1465;0;38
26372308;32843300;3694327;3436710;1709;0;40
30232100;37672878;4224781;3950005;1465;0;42
28688342;35712128;4011282;3735687;1831;0;44
31876933;39693257;4473621;4166886;1404;0;46
32844276;40893084;4579334;4282033;1099;0;48
38385766;47812682;5366197;5008479;1953;0;50
34190403;42546400;4766162;4445362;1770;0;52
38922386;48466490;5433091;5067153;1892;0;54
37123623;46227054;5206957;4851928;1647;0;56
38345239;47736328;5352220;4995007;1770;0;58
40288471;50151544;5640976;5255336;1892;0;60
42430067;52853258;5957687;5547681;1831;0;62
47267763;58781405;6550825;6117680;2075;0;64
46836183;58336276;6568465;6121912;2075;0;66
118293825;147319508;16527790;15638558;1526;0;68
64769610;80728614;9104347;8544122;2686;0;70
49695430;61879175;6970136;6498251;2564;0;72
50777824;63223288;7127911;6658956;2441;0;74
51074027;63535665;7124310;6645295;2564;0;76
55203045;68777900;7727336;7231546;2441;0;78
70221622;87415914;9836828;9206799;2869;0;80
55103985;68576729;7703167;7214057;2075;0;82
73684748;91726511;10316685;9672770;3113;0;84
67961190;84683316;9599707;8975686;2869;0;86
65938857;82111545;9254066;8641208;3174;0;88
60971950;75952077;8548379;7982218;2624;0;90
66146742;82428256;9317908;8715314;2442;0;92
67289318;83770965;9395422;8807377;2258;0;94
70945375;88308978;9925206;9268371;2869;0;96
66629102;82935029;9327979;8709985;2502;0;98
64650775;80502968;9053688;8449158;2747;0;100
70349917;87578389;9862645;9198712;3296;0;102
73003109;90933178;10218846;9549255;3357;0;104
74864738;93254461;10515232;9857451;2014;0;106
72637998;90421033;10146092;9497455;2930;0;108
77563644;96578122;10870211;10155274;3174;0;110
79012005;98660331;11160860;10453378;3418;0;112
77143967;96022765;10780918;10087773;3723;0;114
82825105;103108073;11598237;10834038;3174;0;116
83423065;104099465;11779511;11012206;4028;0;118
97400324;122229668;13936793;13155719;4151;0;120
86310998;107420380;12062958;11274749;3357;0;122
82650057;102965435;11629487;10854430;3723;0;124
86778281;108162931;12220855;11467601;1831;0;126
91042003;113326431;12736845;11896499;4029;0;128
90952526;113220291;12728849;11893708;3967;0;130
92511665;115127391;12921415;12068691;4089;0;132
92054086;114664990;12958279;12090901;3907;0;134
98865226;123146047;13880946;13027360;1647;0;136
102340985;127577737;14401696;13465660;4577;0;138
96009459;119565428;13453213;12584779;3846;0;140
100656359;125359603;14129542;13219473;4089;0;142
98580863;122754812;13828944;12940676;3967;0;144
99884815;124302538;13979639;13055862;3784;0;146
104712500;130717988;14836205;13901962;4272;0;148
109021083;135620197;15159873;14205857;4273;0;150
107174714;133458215;15002769;14066648;3418;0;152
111093404;138235853;15512716;14498280;4639;0;154
112660173;140302802;15831625;14791723;4700;0;156
115457712;144221005;16421406;15386458;4638;0;158
113526992;141433171;15917501;14964672;2686;0;160
126627239;157558740;17720231;16554234;5066;0;162
126272870;157142054;17638138;16518972;4822;0;164
133958824;166819153;18840406;17620783;5371;0;166
131458038;163642648;18389846;17231875;5798;0;168
131411956;163589608;18417982;17243915;5005;0;170
139738900;173846784;19515697;18272438;4822;0;172
144972041;180431057;20275217;18998515;5921;0;174
314655627;391691014;44237436;41496596;8240;0;176
33509497;41820632;4761462;4421332;2441;0;178
151857094;189075566;21352057;19953571;6104;0;180
161032547;200507238;22586673;21157336;6103;0;182
157136561;195694689;22064031;20743904;2198;0;184
165542362;206110434;23253907;21766227;6653;0;186
115337413;143515197;16113546;15042474;4883;0;188
195846423;243781297;27417776;25750856;4639;0;190
194762929;242303151;27205314;25459539;7263;0;192
182018271;226538727;25516598;23872048;7080;0;194
138472362;172494065;19410961;18317058;1587;0;196
184047564;229231163;25893427;24246929;6775;0;198
113376113;141416996;15993123;14953201;4821;0;200
156286221;194622121;21929876;20578742;4394;0;202
207918413;258698495;29078966;27229721;7813;0;204
114158765;142268862;16117635;15069048;4700;0;206
136073748;169534173;19139172;17971130;3296;0;208
259116524;323010037;36488065;34222062;8972;0;210
123637501;154485262;17593583;16493304;4700;0;212
131419036;163491403;18377516;17140785;5981;0;214
253668418;316598494;35961273;33723892;9522;0;216
91701913;114245923;12923184;12056281;4150;0;218
135038960;168018613;18860364;17635662;5249;0;220
102035139;127209819;14423791;13476301;4334;0;222
150392376;187475167;21223944;19934276;3052;0;224
80444313;100268725;11393892;10624580;3723;0;226
160212664;199558510;22608768;21146225;6653;0;228
97537165;121507380;13700404;12815093;3602;0;230
93174749;116098213;13142484;12304124;2624;0;232
81218054;101216415;11473726;10703373;3173;0;234
81527379;101548873;11485689;10708705;4578;0;236
63909077;79701700;9048011;8424879;3113;0;238
287860469;358411985;40432025;37950175;6287;0;240
64056416;79816080;9038490;8414930;3540;0;242
128314064;159679951;17969681;16806045;5920;0;244
100933213;125790693;14231164;13318989;4700;0;246
313603994;392456454;44678353;42209323;4394;0;248
102737408;127964028;14467919;13513489;4456;0;250
121631586;151518960;17137713;16034302;6042;0;252
333587892;421888568;49380123;46711540;6835;137;254
115181529;146147209;17296769;16197640;4944;0;256
38465233;47511414;5217699;4797077;2625;0;258
337774038;425985787;49435970;46609803;8667;137;260
91930734;115895150;13559963;12630862;3845;0;262
101074875;125826338;14237024;13253984;4029;0;264
88414508;109978478;12387603;11511886;3906;0;266
46891665;58453586;6669172;6172501;2625;0;268
97920709;121885674;13768764;12873385;3235;0;270
43128064;53786422;6146529;5692209;2563;0;272
63630636;79271220;9005043;8359573;2991;0;274
95853026;119319824;13481655;12551887;4639;0;276
50552605;62806480;7070356;6528531;2930;0;278
80694313;100751268;11540437;10761391;3967;0;280
65379960;81487218;9239051;8608818;2808;0;282
74845145;93326787;10578647;9850424;3296;0;284
86886680;108222257;12274993;11423200;4395;0;286
83685699;104233620;11811066;10988976;4577;0;288
69963017;87333028;10010350;9321605;3601;0;290
36419157;45419683;5193407;4787173;2625;0;292
52121876;64956926;7388714;6860954;2258;0;294
56474404;70369571;7988810;7408416;2930;0;296
96225584;119856382;13571132;12648127;4272;0;298
100540209;126119856;14464257;13564992;4517;0;300
35592621;44364327;5068835;4669507;2319;0;302
42558912;52986803;6010971;5556064;2503;0;304
89671645;111753803;12680998;11854556;3235;0;306
78436384;97773431;11125398;10354693;3784;0;308
32926856;41094682;4740345;4369427;1953;0;310
338598438;426841253;49507869;46672563;10376;137;312
311233456;389546488;44792243;41904770;11780;0;314
336024043;423268692;49181332;46535672;3906;137;316
200093787;251169157;29042833;27207252;7569;0;318
278188375;346429167;39291525;36859709;7507;0;320
227662503;283261604;32032083;29947001;8240;0;322
333427186;421901691;49506465;47057260;7446;137;324
344805148;440389681;52756701;49871722;12879;137;326
342001749;432925528;50567742;48014453;3235;137;328
344374545;438493629;52175281;49347944;12085;137;330
250007233;313401175;36074371;34014057;2075;0;332
405281982;517194965;60331388;57344236;12573;137;334
333818116;419128260;48581846;46019806;2136;0;336
342137979;433189503;50908072;48062933;11902;137;338
329465649;417657988;49421322;46845450;976;137;340
581111305;754688986;87185018;83970219;12512;137;342
328983960;417974333;49654170;47152473;2441;137;344
340121627;433639942;51909901;49036659;11719;137;346
336737725;428367067;51082755;48542780;2503;137;348
346418486;439809665;51915333;48982135;13000;137;350
331818181;421290486;50064447;47581832;2258;137;352
342091837;434940659;51587148;48771450;11230;137;354
332886233;422783768;50160089;47554891;2441;137;356
342645058;435746992;51814443;49100433;12146;137;358
337385916;429264770;50978935;48523508;3112;137;360
351831252;449065989;53678634;50909135;13977;137;362
326972369;417851042;50475762;47979742;3418;137;364
337001823;428896607;50960624;48059802;11413;137;366
94006473;119461791;14265771;13395464;2685;0;368
28985400;36177153;4185841;3840507;2503;0;370
66799756;83253083;9470557;8788710;3784;0;372
57166174;71226686;8108927;7512724;3418;0;374
40114460;50002253;5722703;5278978;2381;0;376
52160205;65003678;7402752;6854580;3235;0;378
44608406;55545939;6315597;5819583;2624;0;380
40718584;50755546;5813828;5346679;2868;0;382
39706807;49349055;5578599;5135254;2259;0;384
51106132;63682271;7238629;6732934;1526;0;386
55610697;69238104;7853557;7283498;3296;0;388
33839757;42221510;4847400;4456734;2136;0;390
37377346;46640567;5343980;4931232;2686;0;392
47466919;59131806;6728620;6206434;2930;0;394
43824778;54769514;6325973;5855257;2868;0;396
43364635;54032149;6167953;5683786;2746;0;398
58013890;72133849;8141886;7545242;3113;0;400
81376501;101341355;11482270;10712423;3418;0;402
38404321;47849304;5459093;5029221;2259;0;404
64705645;80681190;9191199;8529737;3723;0;406
41500993;51772206;5925705;5470418;2502;0;408
39116721;48751157;5562669;5121076;3113;0;410
93793034;116801642;13193997;12312118;3907;0;412
77892134;97038631;11024325;10220442;4577;0;414
99308461;123801075;14033961;13182053;2563;0;416
34758029;43327282;4950670;4558227;2075;0;418
89184098;111142599;12652067;11778420;4333;0;420
71062440;88622026;10076634;9380028;3723;0;422
66942517;83581573;9552771;8902080;2991;0;424
71572876;89399613;10247350;9526969;3968;0;426
28823473;35975616;4140248;3790703;2563;0;428
74617729;92950873;10537387;9859434;1648;0;430
65665664;81788364;9287391;8628580;2991;0;432
79862283;99514943;11315279;10536914;4151;0;434
79921976;99623951;11345003;10562157;3845;0;436
75522328;94110965;10736117;9969022;4029;0;438
64168659;79977029;9100929;8465356;2929;0;440
85130397;106127658;12040741;11288030;1709;0;442
77104050;96178892;10985568;10222059;3906;0;444
38640159;48233641;5561082;5116282;2686;0;446
21766179;27186942;3161796;2870498;1953;0;448
47205018;58851107;6718000;6206215;2380;0;450
77563339;96557614;10922031;10163876;4089;0;452
69148321;86072229;9756933;9050261;3662;0;454
74024346;92286385;10512058;9802254;2503;0;456
73897577;91986703;10422337;9674061;4028;0;458
80815955;100947007;11531892;10770929;4334;0;460
71364197;88903703;10120275;9388658;3113;0;462
81331884;101229905;11444672;10648206;4394;0;464
75515310;94151431;10773165;10011970;4578;0;466
75124320;93650212;10660801;9920561;3479;0;468
45018013;56110513;6420272;5906384;2747;0;470
72445798;90214796;10226354;9511802;3357;0;472
80320290;100116382;11384614;10595999;4211;0;474
26771233;33521521;3920888;3585076;2624;0;476
73769708;91898813;10454991;9710990;3601;0;478
28427295;35545319;4120229;3786737;1343;0;480
37335903;46614993;5380174;4936412;2381;0;482
75364003;93935673;10708774;9938027;3784;0;484
70250064;87644428;10016087;9304286;3967;0;486
76298937;95071046;10834811;10064149;3784;0;488
79482463;98994253;11234895;10453228;3479;0;490
30938336;38612084;4450428;4071906;1831;0;492
49228268;61398402;7008100;6509771;1526;0;494
78950787;99762196;11986724;11055285;3540;0;496
84000212;105423070;12243987;11429154;4455;0;498
32034709;39999104;4633106;4235968;2014;0;500
28712878;35857880;4142750;3783515;2381;0;502
42077651;52455066;6019210;5537271;2624;0;504
31737468;39684163;4618579;4231635;2319;0;506
42410597;52915392;6089645;5603163;2502;0;508
28704029;35880951;4195546;3820063;2319;0;510
73119502;91367931;10472630;9806769;1099;0;512
27751394;34693576;4022939;3669271;2197;0;514
27623160;34506809;4011159;3651089;2197;0;516
56084024;69916996;8013956;7403877;2868;0;518
75482778;93981632;10670261;9906060;4090;0;520
29269090;36546659;4231617;3869216;2197;0;522
32144327;40130696;4639393;4242398;2136;0;524
32427468;40562153;4727283;4327964;2807;0;526
33602758;42045730;4883288;4487109;2259;0;528
35439301;44234445;5119371;4690161;2563;0;530
21293586;26633843;3121513;2821565;1831;0;532
48144103;60062346;6884259;6383772;1159;0;534
20539743;25700313;3013359;2719921;1831;0;536
23188051;28985217;3382621;3059307;1892;0;538
46352542;57770909;6607649;6078536;3052;0;540
25207333;31499798;3672110;3333852;2136;0;542
41720596;52068592;5988144;5500181;2503;0;544
54185103;67540782;7714152;7118043;3113;0;546
80675758;100486803;11419709;10624823;3723;0;548
73551753;91685373;10424534;9685572;3418;0;550
72781674;91035900;10487522;9810174;1953;0;552
40708697;50872368;5900558;5437222;2991;0;554
78573407;98206353;11264986;10486821;3784;0;556
32614663;40755389;4735035;4332991;1954;0;558
60398283;75231192;8578286;7929780;3356;0;560
56562416;70551150;8090250;7481750;2685;0;562
28715564;35862152;4169850;3794743;2381;0;564
28452564;35541901;4133229;3753267;1953;0;566
25941279;32405984;3775137;3420555;2319;0;568
25047177;31344952;3677359;3342444;2076;0;570
43017529;53711533;6156417;5716903;1465;0;572
48416136;60396024;6943280;6397153;2441;0;574
49910029;62250451;7164289;6601286;2685;0;576
45307440;56554176;6546309;6030141;3174;0;578
31072186;38879112;4536182;4140220;2564;0;580
41318193;51517324;5922226;5436245;3174;0;582
23194337;28980028;3381644;3051123;2563;0;584
42298598;52713610;6049972;5557501;2686;0;586
27352285;34179233;3985891;3618853;2014;0;588
34315891;42826978;4960619;4529512;2381;0;590
33234900;41494400;4812305;4397163;2197;0;592
39924214;49838923;5737839;5297293;1099;0;594
26905449;33645971;3928152;3570429;1892;0;596
60961391;75988453;8689980;8035147;2869;0;598
29467271;36819181;4285267;3908386;2258;0;600
28402210;35529756;4157399;3789262;2076;0;602
35199434;43961069;5100451;4656366;2502;0;604
46141544;57571629;6651106;6107808;2564;0;606
43119946;53797592;6202438;5699051;2808;0;608
23161501;28953600;3401541;3064544;1892;0;610
44669563;55715006;6415084;5894492;2564;0;612
40489154;50599114;5867173;5384158;2563;0;614
26736259;33442846;3904959;3551125;1831;0;616
48545652;60544767;6956525;6406894;2503;0;618
39194419;48894895;5634507;5158175;2197;0;620
23191958;29000658;3406547;3066157;1953;0;622
23995239;30022506;3532401;3191142;2075;0;624
35395418;44184457;5119005;4673921;2746;0;626
39552633;49371883;5703599;5232896;3173;0;628
19202038;24064880;2868400;2568461;1770;0;630
31856059;39848409;4665149;4264571;2441;0;632
31462505;39286338;4573169;4163201;2136;0;634
34012791;42509962;4952074;4533559;2381;0;636
27879079;34840364;4076162;3694336;2075;0;638
44866646;56000467;6469161;5940041;2808;0;640
40957719;51094596;5878952;5394669;2930;0;642
30233627;37779567;4396717;4006047;1953;0;644
33817052;42238417;4913500;4480667;2624;0;646
299586513;373316915;42433058;39776065;8484;0;648
327548112;420971091;51832021;49119253;12329;137;650
241901175;304081130;35358552;33382965;2197;0;652
323970545;416404330;51496328;48732778;12146;137;654
330431405;421540913;50600639;48129492;1281;137;656
243327502;305745738;35380769;33208027;9217;0;658
185073073;230572835;26164300;24485037;5554;0;660
209994214;261701539;29706711;27819482;8789;0;662
334704161;422561052;49473018;46848217;6592;137;664
335967280;427777286;51001578;48252411;11047;137;666
326783588;415460850;49369624;46855045;3296;137;668
339563217;430915034;50911552;48033776;11780;137;670
331555547;419749841;49284542;46725159;1648;137;672
349944539;442621181;51900380;49049636;12268;137;674
324451989;412560834;49101865;46591493;2686;137;676
342821449;438310706;52485462;49586211;12573;137;678
660136860;860518060;108356107;94537565;4517;137;680
358471922;458360155;56731605;51350208;11902;137;682
342882545;435758222;52644579;48618149;2808;137;684
331706609;421819904;50257562;47555382;12268;137;686
333921203;423142471;49728327;47017286;2137;137;688
388277387;496530407;58438937;55427226;11169;137;690
333138673;425128428;51085806;48611359;2503;137;692
345297090;440970612;52661547;49848120;12451;137;694
328244887;416643526;49297970;46707894;2014;137;696
461661721;595841187;70936097;67876909;14954;137;698
333340700;423105240;50289728;47349646;13183;137;700
331346991;420209435;49548884;46978834;1892;137;702
333056216;424327100;50692985;47801300;11475;137;704
336350335;431454462;52056324;49514848;2136;137;706
199004679;249520419;28845141;26932986;6531;0;708
114321241;142365176;16201924;15043507;5005;0;710
333903259;423761427;49906305;47347577;3906;137;712
175355874;220432297;25695307;24048564;7324;0;714
336749260;427192937;50351617;47675943;8179;137;716
365000409;465514921;54914777;52022746;12695;137;718
332867373;422101885;49943964;47349718;2563;137;720
473401254;611196799;71469177;68255647;11536;137;722
332664431;420504356;49107479;46625229;3601;137;724
351350114;447684584;53199754;50444766;11231;137;726
329303478;420387291;50391533;47852057;4028;137;728
335486201;426779791;50974174;48043808;12330;137;730
329077649;417789763;49657954;47144062;2686;137;732
377088207;484120709;57691808;54733281;12085;137;734
332076237;420426170;49384029;46790089;3662;137;736
341190228;432784476;50991386;48220573;11047;137;738
330413644;418340604;49234249;46778534;2075;137;740
336768486;431995964;52323597;49369916;11963;137;742
326635211;413981851;48917416;46513951;2808;137;744
359279109;456385977;53384568;50420291;11536;137;746
334428344;426099984;50561883;47966602;3112;137;748
418021757;538567286;63722310;60785056;10620;137;750
361401418;462596166;54996014;52503174;3845;137;752
335910578;427185003;50715934;48106344;12268;137;754
328681409;415519627;48763974;46260614;2014;137;756
185873670;234270458;27390006;25598652;7324;0;758
335692134;424116590;49747553;47008063;8300;137;760
331306037;421043477;49998530;47188030;11597;137;762
256905227;321865814;37001187;34781818;2380;0;764
342551858;436478375;51867543;49138504;13123;137;766
265532402;332528507;38077112;35845302;2441;0;768
477143432;616044749;72085448;68964531;12451;137;770
326447711;413062175;48472227;45982351;2503;137;772
354403268;451233586;53285081;50356149;12146;137;774
335433528;425589181;50086480;47575928;2686;137;776
337672353;430104063;51391958;48560904;12268;137;778
331375982;418671353;48851560;46268514;3235;137;780
79829446;101901167;12420562;11529233;3296;0;782
329220349;413325114;47692199;44938715;11170;137;784
331051398;422263385;50589348;47807482;10864;137;786
337046989;426811407;50308831;47760572;2320;137;788
623001396;810298157;93453862;89931040;12512;137;790
335503231;425170359;49794916;47329800;2869;137;792
347580531;443242578;52788317;49932692;11535;137;794
325617208;412527752;48598203;46007155;3418;137;796
328330947;417467010;49884210;47011330;12268;137;798
328139480;414277748;48367796;45885728;3785;137;800
330671028;422605669;50928825;48119069;11169;137;802
359124813;460064069;54790143;52214253;2990;137;804
403560735;519475843;61641322;58667410;12635;137;806
327854690;416598299;49759516;47268929;3540;137;808
334794980;426047188;50798515;48015839;12268;137;810
325493002;411868879;48451719;45838007;2014;137;812
332237980;423593764;50912406;48010077;11170;137;814
327218950;416873018;49887141;47342891;2686;137;816
329604320;419508325;50092585;47234751;11413;137;818
349586081;445732318;52971178;50312252;2258;137;820
390572243;502303890;59873870;56958921;10803;137;822
330900276;421838092;50726860;48170972;1587;137;824
329721873;418517605;49763300;46847158;12451;137;826
336630425;429117249;51126700;48512478;3418;137;828
331360174;422926103;50860709;48048276;11353;137;830
333374146;422703630;49641596;47020516;2564;137;832
338487536;432575187;52073109;49200937;11108;137;834
329407299;418751797;49671198;47078229;1404;137;836
339971786;432631278;51419485;48495993;11963;137;838
326781939;416150729;49635065;47178464;3540;137;840
324906700;415628819;50434075;47549314;12024;137;842
374002094;480289908;57322547;54651765;3479;137;844
493305439;640995979;75439504;72306536;11109;137;846
324640526;412126447;48861020;46427583;3845;137;848
437349222;563146813;66267958;63195737;11414;137;850
327611283;415603855;48979183;46451060;3418;137;852
333459230;422611772;49924738;46977075;12573;137;854
328978589;417578826;49460078;47062584;3296;137;856
181528954;228996484;26870232;25061124;6836;0;858
331279486;419498010;49312678;46625048;7691;137;860
354925239;453412048;53937240;50793541;12146;137;862
323871302;411489670;49112362;46392326;2502;137;864
329972666;417883451;49327144;46478317;11536;137;866
175933693;221695294;25934382;24341162;2686;0;868
3990346;5156359;760801;553061;976;0;870
3869680;5013231;744505;548135;1037;0;872
3864004;5028979;755919;550306;1343;0;874
3949331;5110949;752257;550923;977;0;876
3899710;5068347;756773;551893;1221;0;878
3882437;5037767;757994;555714;1221;0;880
3990652;5170885;764463;557619;976;0;882
3878714;5051684;761595;553846;1220;0;884
3881643;5032946;761655;552852;1098;0;886
3971914;5139330;758238;551944;1160;0;888
3905508;5070177;763487;556715;1038;0;890
3900685;5064501;759886;555864;1282;0;892
3997366;5183642;769956;558771;977;0;894
3924917;5096728;760557;557913;1160;0;896
3895254;5069567;765013;556770;1221;0;898
3987661;5160021;761473;556383;1037;0;900
3956533;5140673;767454;558692;1342;0;902
3928090;5105944;767759;562186;1220;0;904
4070546;5247606;773618;559765;855;0;906
3938588;5126208;765501;560124;1160;0;908
3901479;5080981;770323;557991;916;0;910
4052846;5257799;776976;562770;1648;0;912
4016042;5206591;780943;571306;1160;0;914
3919850;5099718;775328;563811;1038;0;916
4013967;5202745;775938;559418;1099;0;918
3926381;5117418;767942;560992;1037;0;920
3921865;5091113;773192;562413;610;0;922
4023305;5220079;769774;564273;671;0;924
4054738;5269945;791563;578325;305;0;926
3938222;5128344;774901;563196;611;0;928
4022024;5222521;776670;563515;1038;0;930
4040090;5238696;783568;569291;1038;0;932
3994557;5196459;790770;573335;1160;0;934
4048757;5246142;779173;566955;1221;0;936
4083364;5328172;802305;585431;1221;0;938
3978933;5181566;782286;568523;1037;0;940
4084706;5301744;791929;571335;915;0;942
4006886;5201463;782835;568264;1099;0;944
4105824;5288865;794981;571317;1099;0;946
4073903;5275195;787839;569617;1343;0;948
4004934;5198046;793028;568782;976;0;950
3993154;5189257;783995;570434;793;0;952
4104542;5329576;796995;576518;550;0;954
4010976;5212633;789060;573104;977;0;956
4086294;5296984;798520;574334;610;0;958
4171498;5408434;803343;583854;793;0;960
4033254;5253892;796568;578059;916;0;962
4153615;5379198;799559;580904;1099;0;964
4135426;5385728;814268;589298;1037;0;966
4057729;5274461;791135;571612;915;0;968
4061025;5282213;797850;573746;793;0;970
4041982;5263536;803953;577288;1221;0;972
4133107;5360643;802183;574717;916;0;974
4034963;5255419;800657;576168;1038;0;976
4030019;5243395;801329;577396;1038;0;978
4144338;5386461;802610;580987;1098;0;980
4068838;5293504;804502;577430;976;0;982
4025869;5254564;802793;580202;976;0;984
4142812;5393540;808409;581414;1160;0;986
4081044;5304613;801634;580052;1099;0;988
4076161;5306505;812437;581331;733;0;990
4130056;5351366;795347;577451;671;0;992
4111379;5350023;813963;587117;916;0;994
4081411;5313097;807432;581772;916;0;996
4161122;5414659;814023;583855;1221;0;998
4089955;5319323;804624;581629;732;0;1000
4059499;5293749;811399;583249;793;0;1002
4133717;5371873;810484;581132;916;0;1004
4103871;5336107;816466;584188;916;0;1006
4127553;5382921;813291;584431;915;0;1008
4190174;5454210;827940;595060;732;0;1010
4099965;5343065;812986;585261;610;0;1012
4197011;5461228;827268;588655;1221;0;1014
4129995;5369371;815184;585995;1099;0;1016
4152821;5403551;820127;587104;794;0;1018
4140126;5390795;819578;588441;793;0;1020
4128773;5383348;828367;590320;1037;0;1022
4225331;5479783;826231;590891;855;0;1024
